73CSV  	
// AQ6373B OPTICAL SPECTRUM ANALYZER //                 
35
"CTRWL", 450.000000
"SPAN",  30.000000
"START WL", 435.000000
"STOP WL", 465.000000
"WLFREQ", 0
"REFL",-36.3
"LSCL",10.0
"RESLN",0.050
"AVG",   1
"SMPLAUTO",      1
"SMPL",       3001
"SMPLINTVL",0.0100
"HIGH1"
"MEAS"
"LSUNT",0
"NMSKH","OFF"
"RESCOR",0
"SMOOTH",0
"MEASWL",0
"SWPSPD",0
"CHGPT",         -1
"RESCAL0_0",       9389
"RESCAL0_1",        538
"RESCAL0_2",    -340913
"RESCAL1_0",       9652
"RESCAL1_1",         64
"RESCAL1_2",     -41039
"CORESIZE", 0







"[TRACE DATA]"
 435.0000, -72.094
 435.0100,-210.000
 435.0200,-210.000
 435.0300, -74.231
 435.0400, -72.366
 435.0500, -79.109
 435.0600, -74.902
 435.0700, -79.510
 435.0800, -78.448
 435.0900, -70.759
 435.1000,-210.000
 435.1100,-210.000
 435.1200, -75.923
 435.1300,-210.000
 435.1400, -73.040
 435.1500, -74.472
 435.1600,-210.000
 435.1700,-210.000
 435.1800, -76.062
 435.1900, -77.203
 435.2000, -81.397
 435.2100,-210.000
 435.2200,-210.000
 435.2300, -71.499
 435.2400, -73.062
 435.2500,-210.000
 435.2600,-210.000
 435.2700,-210.000
 435.2800,-210.000
 435.2900, -71.485
 435.3000,-210.000
 435.3100, -82.258
 435.3200, -84.012
 435.3300,-210.000
 435.3400,-210.000
 435.3500, -72.832
 435.3600, -82.892
 435.3700,-210.000
 435.3800,-210.000
 435.3900, -68.573
 435.4000, -75.651
 435.4100, -74.858
 435.4200,-210.000
 435.4300, -79.935
 435.4400,-210.000
 435.4500, -77.416
 435.4600, -72.450
 435.4700, -77.346
 435.4800, -75.789
 435.4900, -75.304
 435.5000,-210.000
 435.5100,-210.000
 435.5200,-210.000
 435.5300, -76.079
 435.5400,-210.000
 435.5500,-210.000
 435.5600,-210.000
 435.5700,-210.000
 435.5800,-210.000
 435.5900,-210.000
 435.6000, -72.692
 435.6100, -90.222
 435.6200,-210.000
 435.6300,-210.000
 435.6400, -71.568
 435.6500,-210.000
 435.6600, -74.707
 435.6700, -76.247
 435.6800,-210.000
 435.6900, -90.590
 435.7000, -75.734
 435.7100, -91.491
 435.7200, -72.891
 435.7300,-210.000
 435.7400, -75.409
 435.7500,-210.000
 435.7600, -73.758
 435.7700,-210.000
 435.7800,-210.000
 435.7900, -72.270
 435.8000, -80.628
 435.8100, -82.719
 435.8200, -74.228
 435.8300, -73.887
 435.8400, -73.418
 435.8500, -83.046
 435.8600,-210.000
 435.8700, -77.198
 435.8800,-210.000
 435.8900, -73.344
 435.9000,-210.000
 435.9100,-210.000
 435.9200,-210.000
 435.9300,-210.000
 435.9400, -79.270
 435.9500,-210.000
 435.9600, -68.603
 435.9700,-210.000
 435.9800, -71.757
 435.9900, -72.641
 436.0000, -79.446
 436.0100,-210.000
 436.0200, -72.281
 436.0300, -80.992
 436.0400,-210.000
 436.0500,-210.000
 436.0600, -73.000
 436.0700,-210.000
 436.0800,-210.000
 436.0900, -76.486
 436.1000,-210.000
 436.1100, -78.760
 436.1200,-210.000
 436.1300, -81.549
 436.1400,-210.000
 436.1500, -74.148
 436.1600,-210.000
 436.1700,-210.000
 436.1800, -73.228
 436.1900,-210.000
 436.2000,-210.000
 436.2100,-210.000
 436.2200,-210.000
 436.2300,-210.000
 436.2400, -80.922
 436.2500, -80.967
 436.2600, -76.745
 436.2700,-210.000
 436.2800,-210.000
 436.2900,-210.000
 436.3000,-210.000
 436.3100,-210.000
 436.3200,-210.000
 436.3300, -73.870
 436.3400, -73.598
 436.3500, -73.053
 436.3600,-210.000
 436.3700,-210.000
 436.3800, -77.586
 436.3900,-210.000
 436.4000, -77.450
 436.4100, -71.524
 436.4200, -74.284
 436.4300,-210.000
 436.4400, -73.531
 436.4500,-210.000
 436.4600, -75.781
 436.4700,-210.000
 436.4800, -72.470
 436.4900, -72.317
 436.5000, -82.727
 436.5100, -73.354
 436.5200,-210.000
 436.5300, -72.679
 436.5400, -82.505
 436.5500,-210.000
 436.5600, -80.431
 436.5700, -79.672
 436.5800,-210.000
 436.5900, -71.225
 436.6000, -72.472
 436.6100,-210.000
 436.6200, -82.863
 436.6300,-210.000
 436.6400,-210.000
 436.6500, -74.188
 436.6600,-210.000
 436.6700, -76.777
 436.6800, -82.329
 436.6900, -72.500
 436.7000,-210.000
 436.7100,-210.000
 436.7200,-210.000
 436.7300, -75.497
 436.7400, -74.300
 436.7500, -72.670
 436.7600, -76.560
 436.7700,-210.000
 436.7800,-210.000
 436.7900, -75.474
 436.8000,-210.000
 436.8100,-210.000
 436.8200,-210.000
 436.8300, -76.684
 436.8400, -72.235
 436.8500,-210.000
 436.8600,-210.000
 436.8700,-210.000
 436.8800, -80.927
 436.8900,-210.000
 436.9000,-210.000
 436.9100, -74.406
 436.9200, -80.277
 436.9300,-210.000
 436.9400, -69.462
 436.9500,-210.000
 436.9600,-210.000
 436.9700, -70.810
 436.9800, -75.232
 436.9900, -73.865
 437.0000, -71.078
 437.0100, -76.644
 437.0200, -76.683
 437.0300, -85.421
 437.0400,-210.000
 437.0500, -82.499
 437.0600,-210.000
 437.0700, -72.325
 437.0800, -75.468
 437.0900,-210.000
 437.1000, -73.980
 437.1100, -73.347
 437.1200, -71.711
 437.1300, -82.868
 437.1400, -75.636
 437.1500, -73.527
 437.1600,-210.000
 437.1700,-210.000
 437.1800, -75.308
 437.1900, -73.468
 437.2000,-210.000
 437.2100,-210.000
 437.2200,-210.000
 437.2300,-210.000
 437.2400, -74.123
 437.2500, -70.630
 437.2600, -71.087
 437.2700, -83.627
 437.2800,-210.000
 437.2900,-210.000
 437.3000, -77.119
 437.3100,-210.000
 437.3200, -88.088
 437.3300, -81.323
 437.3400,-210.000
 437.3500, -77.866
 437.3600, -71.714
 437.3700, -82.552
 437.3800,-210.000
 437.3900, -75.603
 437.4000,-210.000
 437.4100, -84.655
 437.4200,-210.000
 437.4300,-210.000
 437.4400,-210.000
 437.4500,-210.000
 437.4600,-210.000
 437.4700, -70.501
 437.4800, -73.563
 437.4900, -75.161
 437.5000,-210.000
 437.5100, -77.649
 437.5200,-210.000
 437.5300, -79.060
 437.5400,-210.000
 437.5500,-210.000
 437.5600,-210.000
 437.5700,-210.000
 437.5800,-210.000
 437.5900, -71.801
 437.6000,-210.000
 437.6100,-210.000
 437.6200, -73.219
 437.6300,-210.000
 437.6400,-210.000
 437.6500, -72.695
 437.6600, -82.024
 437.6700, -78.250
 437.6800,-210.000
 437.6900, -75.325
 437.7000, -75.334
 437.7100, -74.155
 437.7200, -72.379
 437.7300,-210.000
 437.7400,-210.000
 437.7500, -75.880
 437.7600, -72.460
 437.7700,-210.000
 437.7800, -70.175
 437.7900, -73.327
 437.8000, -78.215
 437.8100, -72.403
 437.8200,-210.000
 437.8300,-210.000
 437.8400, -78.346
 437.8500,-210.000
 437.8600, -73.733
 437.8700, -71.359
 437.8800,-210.000
 437.8900,-210.000
 437.9000, -73.072
 437.9100,-210.000
 437.9200, -76.588
 437.9300,-210.000
 437.9400, -78.147
 437.9500,-210.000
 437.9600, -72.405
 437.9700, -73.441
 437.9800, -80.365
 437.9900,-210.000
 438.0000,-210.000
 438.0100,-210.000
 438.0200,-210.000
 438.0300, -73.414
 438.0400,-210.000
 438.0500,-210.000
 438.0600, -72.949
 438.0700,-210.000
 438.0800,-210.000
 438.0900, -78.265
 438.1000,-210.000
 438.1100,-210.000
 438.1200,-210.000
 438.1300,-210.000
 438.1400, -72.407
 438.1500,-210.000
 438.1600,-210.000
 438.1700,-210.000
 438.1800, -74.152
 438.1900, -78.008
 438.2000,-210.000
 438.2100, -78.209
 438.2200, -70.623
 438.2300,-210.000
 438.2400, -81.112
 438.2500,-210.000
 438.2600,-210.000
 438.2700,-210.000
 438.2800, -72.167
 438.2900,-210.000
 438.3000,-210.000
 438.3100, -72.911
 438.3200, -76.548
 438.3300, -73.079
 438.3400, -74.477
 438.3500, -99.965
 438.3600,-210.000
 438.3700, -74.668
 438.3800,-210.000
 438.3900, -78.231
 438.4000, -77.368
 438.4100,-210.000
 438.4200, -73.596
 438.4300,-210.000
 438.4400, -75.245
 438.4500,-210.000
 438.4600,-210.000
 438.4700,-210.000
 438.4800, -80.243
 438.4900,-210.000
 438.5000, -70.395
 438.5100, -74.047
 438.5200, -71.389
 438.5300, -73.356
 438.5400, -74.959
 438.5500,-210.000
 438.5600,-210.000
 438.5700,-210.000
 438.5800,-210.000
 438.5900,-210.000
 438.6000, -68.951
 438.6100, -82.366
 438.6200,-210.000
 438.6300, -76.148
 438.6400, -76.615
 438.6500,-210.000
 438.6600, -81.316
 438.6700, -80.506
 438.6800,-210.000
 438.6900, -72.945
 438.7000, -74.908
 438.7100,-210.000
 438.7200, -78.541
 438.7300, -74.375
 438.7400, -72.725
 438.7500,-210.000
 438.7600, -73.715
 438.7700,-210.000
 438.7800,-210.000
 438.7900,-210.000
 438.8000, -75.029
 438.8100,-210.000
 438.8200,-210.000
 438.8300,-210.000
 438.8400,-210.000
 438.8500, -73.672
 438.8600, -88.267
 438.8700,-210.000
 438.8800,-210.000
 438.8900,-210.000
 438.9000, -72.075
 438.9100, -76.717
 438.9200,-210.000
 438.9300,-210.000
 438.9400, -80.403
 438.9500, -77.586
 438.9600,-210.000
 438.9700,-100.302
 438.9800,-210.000
 438.9900,-210.000
 439.0000, -73.506
 439.0100, -68.726
 439.0200, -69.849
 439.0300,-210.000
 439.0400, -79.375
 439.0500,-210.000
 439.0600,-210.000
 439.0700, -75.915
 439.0800, -71.502
 439.0900, -78.508
 439.1000, -75.479
 439.1100, -89.861
 439.1200, -74.172
 439.1300,-210.000
 439.1400,-210.000
 439.1500,-210.000
 439.1600,-210.000
 439.1700, -76.130
 439.1800, -76.910
 439.1900, -80.806
 439.2000,-210.000
 439.2100, -70.845
 439.2200, -73.129
 439.2300, -80.545
 439.2400,-210.000
 439.2500,-210.000
 439.2600,-210.000
 439.2700, -74.980
 439.2800,-210.000
 439.2900, -78.386
 439.3000,-210.000
 439.3100,-210.000
 439.3200,-210.000
 439.3300, -73.679
 439.3400, -75.117
 439.3500, -76.809
 439.3600, -75.814
 439.3700,-210.000
 439.3800,-210.000
 439.3900, -80.329
 439.4000, -74.366
 439.4100,-210.000
 439.4200, -72.635
 439.4300, -71.807
 439.4400,-210.000
 439.4500,-210.000
 439.4600,-210.000
 439.4700, -71.508
 439.4800, -73.568
 439.4900, -70.269
 439.5000, -69.580
 439.5100,-210.000
 439.5200,-210.000
 439.5300,-210.000
 439.5400, -74.046
 439.5500, -69.869
 439.5600, -73.436
 439.5700, -75.420
 439.5800,-210.000
 439.5900,-210.000
 439.6000, -82.104
 439.6100,-210.000
 439.6200, -75.417
 439.6300,-210.000
 439.6400,-210.000
 439.6500,-210.000
 439.6600,-210.000
 439.6700, -75.878
 439.6800, -76.026
 439.6900,-210.000
 439.7000, -76.917
 439.7100, -80.709
 439.7200, -76.808
 439.7300, -73.621
 439.7400, -76.385
 439.7500, -81.432
 439.7600,-210.000
 439.7700,-210.000
 439.7800,-210.000
 439.7900, -73.491
 439.8000, -77.032
 439.8100, -75.462
 439.8200,-210.000
 439.8300, -85.100
 439.8400,-210.000
 439.8500, -72.240
 439.8600,-210.000
 439.8700, -71.474
 439.8800, -82.074
 439.8900, -72.792
 439.9000, -74.031
 439.9100,-210.000
 439.9200,-210.000
 439.9300, -80.988
 439.9400, -74.203
 439.9500, -70.497
 439.9600,-210.000
 439.9700,-210.000
 439.9800,-210.000
 439.9900,-210.000
 440.0000, -73.527
 440.0100,-210.000
 440.0200,-210.000
 440.0300, -71.247
 440.0400, -76.967
 440.0500, -75.441
 440.0600, -89.996
 440.0700,-210.000
 440.0800, -79.531
 440.0900, -74.668
 440.1000, -78.157
 440.1100,-210.000
 440.1200, -82.475
 440.1300, -80.229
 440.1400,-210.000
 440.1500, -79.472
 440.1600, -94.183
 440.1700, -71.207
 440.1800, -73.906
 440.1900, -77.588
 440.2000, -81.916
 440.2100, -81.256
 440.2200, -75.675
 440.2300, -73.741
 440.2400,-210.000
 440.2500, -69.516
 440.2600, -74.381
 440.2700, -74.337
 440.2800, -71.801
 440.2900, -72.534
 440.3000,-210.000
 440.3100,-210.000
 440.3200, -78.641
 440.3300,-210.000
 440.3400, -73.531
 440.3500, -78.223
 440.3600,-210.000
 440.3700,-210.000
 440.3800,-210.000
 440.3900, -78.476
 440.4000,-210.000
 440.4100, -78.637
 440.4200,-210.000
 440.4300,-210.000
 440.4400, -72.208
 440.4500,-210.000
 440.4600, -84.918
 440.4700, -72.530
 440.4800, -82.591
 440.4900, -73.993
 440.5000, -72.618
 440.5100,-210.000
 440.5200, -73.781
 440.5300,-210.000
 440.5400,-210.000
 440.5500, -75.611
 440.5600,-210.000
 440.5700, -73.291
 440.5800,-210.000
 440.5900, -80.951
 440.6000,-210.000
 440.6100, -79.322
 440.6200,-210.000
 440.6300,-210.000
 440.6400, -74.184
 440.6500, -74.340
 440.6600, -73.412
 440.6700, -74.616
 440.6800, -82.775
 440.6900,-210.000
 440.7000, -71.061
 440.7100, -81.227
 440.7200,-210.000
 440.7300, -78.454
 440.7400,-210.000
 440.7500,-210.000
 440.7600,-210.000
 440.7700, -73.758
 440.7800,-210.000
 440.7900, -72.970
 440.8000, -79.428
 440.8100,-210.000
 440.8200, -70.394
 440.8300,-210.000
 440.8400, -73.067
 440.8500,-210.000
 440.8600, -82.033
 440.8700,-210.000
 440.8800, -72.840
 440.8900, -77.390
 440.9000,-210.000
 440.9100,-210.000
 440.9200,-210.000
 440.9300, -78.279
 440.9400, -70.857
 440.9500, -73.600
 440.9600,-210.000
 440.9700, -73.064
 440.9800,-210.000
 440.9900,-210.000
 441.0000,-210.000
 441.0100, -78.539
 441.0200, -70.740
 441.0300,-210.000
 441.0400,-210.000
 441.0500,-210.000
 441.0600, -71.016
 441.0700, -75.943
 441.0800,-210.000
 441.0900,-210.000
 441.1000, -72.471
 441.1100, -75.729
 441.1200,-210.000
 441.1300, -71.559
 441.1400,-210.000
 441.1500,-210.000
 441.1600, -74.267
 441.1700, -73.521
 441.1800,-210.000
 441.1900, -80.965
 441.2000,-210.000
 441.2100, -80.055
 441.2200, -76.674
 441.2300, -73.498
 441.2400,-210.000
 441.2500,-210.000
 441.2600, -69.019
 441.2700, -78.774
 441.2800,-210.000
 441.2900,-210.000
 441.3000,-210.000
 441.3100, -79.862
 441.3200, -78.754
 441.3300,-210.000
 441.3400,-210.000
 441.3500,-210.000
 441.3600,-210.000
 441.3700, -73.137
 441.3800,-210.000
 441.3900,-210.000
 441.4000,-210.000
 441.4100,-210.000
 441.4200,-210.000
 441.4300, -70.651
 441.4400, -74.248
 441.4500,-210.000
 441.4600, -78.778
 441.4700, -78.163
 441.4800, -80.853
 441.4900, -76.035
 441.5000, -73.808
 441.5100,-210.000
 441.5200,-210.000
 441.5300,-210.000
 441.5400,-210.000
 441.5500, -73.694
 441.5600, -75.733
 441.5700, -74.617
 441.5800, -72.912
 441.5900,-210.000
 441.6000,-210.000
 441.6100, -83.145
 441.6200, -76.811
 441.6300, -70.762
 441.6400,-210.000
 441.6500, -77.919
 441.6600, -73.139
 441.6700,-210.000
 441.6800, -75.503
 441.6900, -79.142
 441.7000, -74.529
 441.7100,-210.000
 441.7200,-210.000
 441.7300, -79.745
 441.7400, -93.840
 441.7500,-210.000
 441.7600, -69.426
 441.7700, -78.498
 441.7800, -74.906
 441.7900,-210.000
 441.8000, -95.186
 441.8100,-210.000
 441.8200,-210.000
 441.8300,-210.000
 441.8400, -71.437
 441.8500, -71.541
 441.8600, -74.597
 441.8700, -78.638
 441.8800,-210.000
 441.8900,-210.000
 441.9000, -71.403
 441.9100, -76.524
 441.9200, -73.599
 441.9300,-210.000
 441.9400, -81.480
 441.9500, -72.396
 441.9600, -75.635
 441.9700,-210.000
 441.9800,-210.000
 441.9900,-210.000
 442.0000, -78.279
 442.0100,-210.000
 442.0200,-210.000
 442.0300, -73.746
 442.0400,-210.000
 442.0500,-210.000
 442.0600, -79.802
 442.0700, -70.657
 442.0800, -73.225
 442.0900,-210.000
 442.1000, -73.750
 442.1100,-210.000
 442.1200,-210.000
 442.1300,-210.000
 442.1400,-210.000
 442.1500,-210.000
 442.1600, -72.094
 442.1700,-210.000
 442.1800, -75.284
 442.1900, -73.875
 442.2000, -76.764
 442.2100,-210.000
 442.2200, -80.628
 442.2300, -71.528
 442.2400,-210.000
 442.2500, -71.469
 442.2600, -79.470
 442.2700, -75.101
 442.2800,-210.000
 442.2900,-210.000
 442.3000, -79.007
 442.3100,-210.000
 442.3200, -75.515
 442.3300,-210.000
 442.3400, -69.672
 442.3500,-210.000
 442.3600, -71.089
 442.3700,-210.000
 442.3800, -78.357
 442.3900,-210.000
 442.4000, -74.860
 442.4100, -77.472
 442.4200, -73.509
 442.4300,-210.000
 442.4400,-210.000
 442.4500,-210.000
 442.4600, -68.507
 442.4700, -78.717
 442.4800,-210.000
 442.4900, -70.556
 442.5000,-210.000
 442.5100, -87.392
 442.5200, -83.934
 442.5300, -72.375
 442.5400,-210.000
 442.5500,-210.000
 442.5600, -73.432
 442.5700, -75.976
 442.5800,-210.000
 442.5900,-210.000
 442.6000,-210.000
 442.6100, -82.919
 442.6200,-210.000
 442.6300,-210.000
 442.6400,-210.000
 442.6500, -85.725
 442.6600, -73.685
 442.6700, -73.326
 442.6800, -81.933
 442.6900,-210.000
 442.7000,-210.000
 442.7100,-210.000
 442.7200,-210.000
 442.7300,-210.000
 442.7400,-210.000
 442.7500, -84.767
 442.7600, -76.232
 442.7700, -73.434
 442.7800,-210.000
 442.7900, -77.121
 442.8000,-210.000
 442.8100,-210.000
 442.8200, -76.026
 442.8300, -75.371
 442.8400, -76.384
 442.8500, -74.421
 442.8600,-210.000
 442.8700, -75.818
 442.8800,-210.000
 442.8900, -75.680
 442.9000,-210.000
 442.9100, -72.751
 442.9200,-210.000
 442.9300, -77.432
 442.9400, -73.487
 442.9500, -81.544
 442.9600, -74.804
 442.9700, -84.436
 442.9800,-210.000
 442.9900, -70.157
 443.0000, -81.204
 443.0100,-210.000
 443.0200,-210.000
 443.0300, -81.223
 443.0400,-210.000
 443.0500, -73.926
 443.0600,-210.000
 443.0700,-210.000
 443.0800,-210.000
 443.0900, -71.126
 443.1000, -79.069
 443.1100, -72.790
 443.1200, -78.157
 443.1300, -81.743
 443.1400,-210.000
 443.1500, -76.192
 443.1600,-210.000
 443.1700, -73.291
 443.1800,-210.000
 443.1900, -85.743
 443.2000, -72.450
 443.2100, -72.637
 443.2200,-210.000
 443.2300,-210.000
 443.2400, -78.741
 443.2500, -76.565
 443.2600,-210.000
 443.2700, -74.797
 443.2800,-210.000
 443.2900,-210.000
 443.3000, -74.887
 443.3100,-210.000
 443.3200,-210.000
 443.3300, -74.385
 443.3400, -73.684
 443.3500,-210.000
 443.3600, -70.481
 443.3700,-210.000
 443.3800,-210.000
 443.3900, -69.057
 443.4000,-210.000
 443.4100, -76.963
 443.4200, -76.565
 443.4300,-210.000
 443.4400, -77.566
 443.4500,-210.000
 443.4600,-210.000
 443.4700, -73.704
 443.4800, -73.543
 443.4900,-210.000
 443.5000,-210.000
 443.5100, -76.575
 443.5200,-210.000
 443.5300,-210.000
 443.5400, -75.617
 443.5500, -75.290
 443.5600, -82.613
 443.5700,-210.000
 443.5800,-210.000
 443.5900, -74.710
 443.6000,-210.000
 443.6100, -84.679
 443.6200, -77.331
 443.6300, -71.106
 443.6400, -80.269
 443.6500,-210.000
 443.6600, -77.878
 443.6700, -78.023
 443.6800, -72.188
 443.6900, -73.278
 443.7000, -76.712
 443.7100, -69.878
 443.7200, -74.477
 443.7300, -74.366
 443.7400, -77.866
 443.7500,-210.000
 443.7600,-210.000
 443.7700, -76.828
 443.7800, -79.844
 443.7900, -72.731
 443.8000,-210.000
 443.8100, -76.892
 443.8200,-210.000
 443.8300,-210.000
 443.8400, -70.596
 443.8500, -70.084
 443.8600, -73.855
 443.8700,-210.000
 443.8800, -85.405
 443.8900,-210.000
 443.9000, -73.686
 443.9100, -78.364
 443.9200,-210.000
 443.9300,-210.000
 443.9400,-210.000
 443.9500, -74.026
 443.9600, -73.619
 443.9700,-210.000
 443.9800,-210.000
 443.9900,-210.000
 444.0000, -73.528
 444.0100,-210.000
 444.0200, -80.840
 444.0300,-210.000
 444.0400,-210.000
 444.0500, -71.364
 444.0600,-210.000
 444.0700,-210.000
 444.0800,-210.000
 444.0900, -71.413
 444.1000,-210.000
 444.1100,-210.000
 444.1200,-210.000
 444.1300, -74.890
 444.1400, -70.988
 444.1500, -80.379
 444.1600,-210.000
 444.1700, -72.028
 444.1800, -76.578
 444.1900,-210.000
 444.2000, -79.261
 444.2100,-210.000
 444.2200,-210.000
 444.2300,-210.000
 444.2400,-210.000
 444.2500,-210.000
 444.2600,-210.000
 444.2700, -74.625
 444.2800, -79.474
 444.2900, -72.197
 444.3000, -72.935
 444.3100, -78.679
 444.3200, -82.261
 444.3300, -75.057
 444.3400, -77.925
 444.3500,-210.000
 444.3600, -72.132
 444.3700, -86.208
 444.3800, -69.424
 444.3900, -73.509
 444.4000, -77.435
 444.4100, -77.639
 444.4200,-210.000
 444.4300, -72.288
 444.4400, -76.956
 444.4500,-210.000
 444.4600,-210.000
 444.4700, -78.441
 444.4800,-210.000
 444.4900, -72.984
 444.5000,-210.000
 444.5100, -84.130
 444.5200,-210.000
 444.5300, -79.058
 444.5400, -78.087
 444.5500, -75.046
 444.5600, -82.029
 444.5700,-210.000
 444.5800, -73.576
 444.5900, -76.358
 444.6000,-210.000
 444.6100,-210.000
 444.6200,-210.000
 444.6300, -75.402
 444.6400,-210.000
 444.6500, -73.645
 444.6600, -76.627
 444.6700,-210.000
 444.6800, -78.698
 444.6900, -88.897
 444.7000, -71.535
 444.7100, -75.381
 444.7200, -69.505
 444.7300, -73.585
 444.7400,-210.000
 444.7500,-210.000
 444.7600, -72.695
 444.7700, -80.544
 444.7800,-210.000
 444.7900, -75.700
 444.8000,-210.000
 444.8100,-210.000
 444.8200, -73.959
 444.8300, -70.824
 444.8400, -75.038
 444.8500,-210.000
 444.8600,-210.000
 444.8700,-210.000
 444.8800,-210.000
 444.8900,-210.000
 444.9000, -74.231
 444.9100, -70.599
 444.9200, -73.186
 444.9300, -74.998
 444.9400,-210.000
 444.9500, -73.364
 444.9600, -76.727
 444.9700, -74.793
 444.9800, -72.417
 444.9900, -75.051
 445.0000,-210.000
 445.0100,-210.000
 445.0200, -82.320
 445.0300, -82.333
 445.0400, -95.886
 445.0500, -81.829
 445.0600, -70.623
 445.0700, -77.230
 445.0800,-210.000
 445.0900,-210.000
 445.1000,-210.000
 445.1100, -73.246
 445.1200,-210.000
 445.1300, -76.432
 445.1400, -73.301
 445.1500, -75.230
 445.1600, -73.081
 445.1700,-210.000
 445.1800,-210.000
 445.1900, -72.315
 445.2000, -71.836
 445.2100,-210.000
 445.2200, -73.271
 445.2300,-210.000
 445.2400, -87.460
 445.2500, -76.394
 445.2600, -72.619
 445.2700,-210.000
 445.2800, -78.436
 445.2900, -72.461
 445.3000, -73.788
 445.3100, -85.777
 445.3200, -77.935
 445.3300, -79.957
 445.3400, -71.194
 445.3500,-210.000
 445.3600,-210.000
 445.3700,-210.000
 445.3800,-210.000
 445.3900,-210.000
 445.4000, -72.155
 445.4100, -77.160
 445.4200, -73.413
 445.4300,-210.000
 445.4400,-210.000
 445.4500, -71.978
 445.4600,-210.000
 445.4700, -77.868
 445.4800, -75.667
 445.4900, -78.860
 445.5000,-210.000
 445.5100, -89.584
 445.5200,-210.000
 445.5300,-210.000
 445.5400, -80.702
 445.5500,-210.000
 445.5600,-210.000
 445.5700,-210.000
 445.5800,-210.000
 445.5900, -71.600
 445.6000, -73.557
 445.6100, -75.711
 445.6200, -75.454
 445.6300,-210.000
 445.6400, -77.223
 445.6500,-210.000
 445.6600,-210.000
 445.6700, -74.835
 445.6800,-210.000
 445.6900, -79.045
 445.7000, -81.538
 445.7100, -73.459
 445.7200,-210.000
 445.7300, -76.684
 445.7400, -87.730
 445.7500, -74.820
 445.7600, -78.666
 445.7700,-210.000
 445.7800, -82.400
 445.7900,-210.000
 445.8000, -72.426
 445.8100, -73.510
 445.8200,-210.000
 445.8300,-210.000
 445.8400,-210.000
 445.8500, -75.777
 445.8600, -75.915
 445.8700, -72.820
 445.8800, -73.748
 445.8900, -74.154
 445.9000, -83.295
 445.9100, -73.249
 445.9200,-210.000
 445.9300,-210.000
 445.9400,-210.000
 445.9500, -86.896
 445.9600, -75.159
 445.9700, -72.968
 445.9800, -70.341
 445.9900, -73.499
 446.0000, -78.840
 446.0100, -86.674
 446.0200, -78.835
 446.0300,-210.000
 446.0400, -72.897
 446.0500,-210.000
 446.0600, -79.044
 446.0700,-210.000
 446.0800,-210.000
 446.0900, -71.562
 446.1000, -72.935
 446.1100, -76.867
 446.1200, -72.746
 446.1300, -71.407
 446.1400, -82.875
 446.1500,-210.000
 446.1600, -72.394
 446.1700, -77.505
 446.1800, -70.905
 446.1900, -72.961
 446.2000,-210.000
 446.2100, -77.236
 446.2200,-210.000
 446.2300, -77.436
 446.2400, -75.576
 446.2500, -79.659
 446.2600, -73.852
 446.2700, -81.389
 446.2800, -72.396
 446.2900, -74.750
 446.3000,-210.000
 446.3100,-210.000
 446.3200, -79.115
 446.3300, -70.893
 446.3400, -73.371
 446.3500, -71.627
 446.3600, -74.947
 446.3700, -71.455
 446.3800, -74.514
 446.3900,-210.000
 446.4000, -77.706
 446.4100, -72.998
 446.4200, -72.245
 446.4300, -73.302
 446.4400, -76.954
 446.4500, -76.748
 446.4600, -85.028
 446.4700,-210.000
 446.4800,-210.000
 446.4900,-210.000
 446.5000,-210.000
 446.5100, -71.711
 446.5200, -71.387
 446.5300, -74.317
 446.5400, -77.260
 446.5500, -75.701
 446.5600,-210.000
 446.5700, -80.027
 446.5800,-210.000
 446.5900, -75.723
 446.6000,-210.000
 446.6100, -76.097
 446.6200, -72.294
 446.6300, -86.775
 446.6400,-210.000
 446.6500, -72.141
 446.6600, -76.100
 446.6700,-210.000
 446.6800, -76.737
 446.6900, -81.545
 446.7000,-210.000
 446.7100,-210.000
 446.7200, -75.960
 446.7300, -73.630
 446.7400, -81.765
 446.7500, -68.191
 446.7600, -79.850
 446.7700, -73.809
 446.7800,-210.000
 446.7900, -73.001
 446.8000, -74.207
 446.8100, -86.954
 446.8200, -70.747
 446.8300,-210.000
 446.8400, -71.723
 446.8500, -74.425
 446.8600,-210.000
 446.8700, -75.625
 446.8800, -69.542
 446.8900,-210.000
 446.9000, -75.585
 446.9100,-210.000
 446.9200, -71.061
 446.9300, -72.332
 446.9400, -69.844
 446.9500,-210.000
 446.9600, -70.990
 446.9700, -84.234
 446.9800,-210.000
 446.9900, -73.142
 447.0000,-210.000
 447.0100, -85.480
 447.0200, -86.200
 447.0300, -73.171
 447.0400, -75.932
 447.0500,-210.000
 447.0600, -74.542
 447.0700, -75.629
 447.0800, -74.675
 447.0900, -74.519
 447.1000,-210.000
 447.1100,-210.000
 447.1200, -79.823
 447.1300,-210.000
 447.1400, -78.325
 447.1500, -79.007
 447.1600, -74.927
 447.1700, -74.299
 447.1800, -68.044
 447.1900, -74.820
 447.2000, -71.430
 447.2100, -72.862
 447.2200,-210.000
 447.2300, -74.588
 447.2400, -71.010
 447.2500, -81.757
 447.2600, -71.013
 447.2700, -74.006
 447.2800, -70.316
 447.2900, -74.328
 447.3000, -69.780
 447.3100, -78.172
 447.3200, -70.869
 447.3300, -74.937
 447.3400, -79.361
 447.3500, -70.450
 447.3600, -71.899
 447.3700, -70.149
 447.3800, -75.263
 447.3900,-210.000
 447.4000,-210.000
 447.4100, -70.607
 447.4200,-210.000
 447.4300, -77.236
 447.4400,-210.000
 447.4500, -72.618
 447.4600, -79.920
 447.4700,-210.000
 447.4800,-210.000
 447.4900, -73.102
 447.5000,-210.000
 447.5100, -73.544
 447.5200,-210.000
 447.5300, -69.923
 447.5400, -74.327
 447.5500, -73.664
 447.5600, -70.756
 447.5700, -70.471
 447.5800, -70.640
 447.5900, -72.040
 447.6000, -78.669
 447.6100,-210.000
 447.6200, -74.771
 447.6300, -74.342
 447.6400, -81.316
 447.6500, -74.029
 447.6600, -72.646
 447.6700, -74.054
 447.6800,-210.000
 447.6900, -76.977
 447.7000, -75.482
 447.7100, -70.238
 447.7200, -72.250
 447.7300, -72.662
 447.7400, -70.246
 447.7500, -73.449
 447.7600, -73.959
 447.7700, -75.058
 447.7800, -74.453
 447.7900, -85.565
 447.8000, -70.600
 447.8100, -70.588
 447.8200, -71.772
 447.8300,-210.000
 447.8400,-210.000
 447.8500, -72.828
 447.8600, -73.491
 447.8700, -72.422
 447.8800, -73.657
 447.8900, -69.219
 447.9000,-210.000
 447.9100, -72.534
 447.9200, -70.831
 447.9300, -71.417
 447.9400, -69.490
 447.9500, -70.690
 447.9600, -78.081
 447.9700, -71.527
 447.9800, -95.150
 447.9900, -70.310
 448.0000, -73.277
 448.0100,-210.000
 448.0200, -68.787
 448.0300, -78.534
 448.0400, -71.597
 448.0500, -77.910
 448.0600, -71.020
 448.0700, -71.819
 448.0800, -71.725
 448.0900, -72.415
 448.1000, -71.669
 448.1100, -73.363
 448.1200, -75.518
 448.1300, -68.275
 448.1400,-210.000
 448.1500, -73.014
 448.1600, -70.445
 448.1700, -72.368
 448.1800, -72.255
 448.1900, -73.038
 448.2000, -69.627
 448.2100, -69.976
 448.2200, -70.652
 448.2300, -70.854
 448.2400, -71.521
 448.2500, -71.427
 448.2600, -68.742
 448.2700, -70.742
 448.2800, -72.068
 448.2900, -75.437
 448.3000, -69.308
 448.3100, -70.260
 448.3200, -68.867
 448.3300, -70.431
 448.3400, -75.227
 448.3500, -73.433
 448.3600, -69.125
 448.3700, -68.557
 448.3800, -69.821
 448.3900, -73.503
 448.4000, -73.545
 448.4100, -67.191
 448.4200, -71.737
 448.4300, -69.955
 448.4400, -68.691
 448.4500, -71.784
 448.4600, -69.452
 448.4700, -69.921
 448.4800, -74.369
 448.4900, -71.475
 448.5000, -70.752
 448.5100, -68.274
 448.5200, -69.080
 448.5300, -78.402
 448.5400, -72.008
 448.5500, -78.213
 448.5600, -70.420
 448.5700, -69.447
 448.5800, -68.715
 448.5900, -70.244
 448.6000, -69.541
 448.6100, -74.571
 448.6200, -68.688
 448.6300, -68.376
 448.6400, -71.310
 448.6500, -70.151
 448.6600, -69.207
 448.6700, -68.393
 448.6800, -69.139
 448.6900, -67.316
 448.7000, -70.531
 448.7100, -67.837
 448.7200, -69.698
 448.7300, -69.328
 448.7400, -71.857
 448.7500, -67.223
 448.7600, -65.924
 448.7700, -65.744
 448.7800, -65.909
 448.7900, -69.925
 448.8000, -66.700
 448.8100, -64.816
 448.8200, -64.961
 448.8300, -64.406
 448.8400, -65.726
 448.8500, -64.566
 448.8600, -66.453
 448.8700, -67.233
 448.8800, -67.076
 448.8900, -66.532
 448.9000, -65.308
 448.9100, -63.284
 448.9200, -54.185
 448.9300, -52.601
 448.9400, -49.676
 448.9500, -52.201
 448.9600, -57.829
 448.9700, -49.151
 448.9800, -48.999
 448.9900, -50.174
 449.0000, -50.736
 449.0100, -55.153
 449.0200, -51.883
 449.0300, -50.182
 449.0400, -47.590
 449.0500, -45.265
 449.0600, -44.395
 449.0700, -44.757
 449.0800, -42.283
 449.0900, -41.190
 449.1000, -41.238
 449.1100, -41.069
 449.1200, -44.468
 449.1300, -43.907
 449.1400, -43.486
 449.1500, -45.339
 449.1600, -47.778
 449.1700, -47.121
 449.1800, -44.930
 449.1900, -48.338
 449.2000, -47.977
 449.2100, -46.825
 449.2200, -46.009
 449.2300, -50.309
 449.2400, -49.443
 449.2500, -46.073
 449.2600, -46.232
 449.2700, -45.864
 449.2800, -43.974
 449.2900, -41.451
 449.3000, -42.398
 449.3100, -41.833
 449.3200, -41.471
 449.3300, -40.986
 449.3400, -40.024
 449.3500, -40.459
 449.3600, -40.441
 449.3700, -41.310
 449.3800, -42.058
 449.3900, -43.303
 449.4000, -44.836
 449.4100, -44.514
 449.4200, -44.045
 449.4300, -43.012
 449.4400, -42.001
 449.4500, -39.663
 449.4600, -39.090
 449.4700, -39.608
 449.4800, -39.034
 449.4900, -39.353
 449.5000, -38.965
 449.5100, -39.666
 449.5200, -39.446
 449.5300, -40.157
 449.5400, -40.638
 449.5500, -40.562
 449.5600, -39.821
 449.5700, -39.263
 449.5800, -39.433
 449.5900, -38.866
 449.6000, -38.559
 449.6100, -38.725
 449.6200, -38.980
 449.6300, -38.711
 449.6400, -38.689
 449.6500, -38.886
 449.6600, -38.877
 449.6700, -38.113
 449.6800, -37.878
 449.6900, -37.857
 449.7000, -37.509
 449.7100, -37.143
 449.7200, -37.107
 449.7300, -37.515
 449.7400, -37.482
 449.7500, -37.904
 449.7600, -38.821
 449.7700, -39.734
 449.7800, -39.992
 449.7900, -40.870
 449.8000, -43.109
 449.8100, -42.921
 449.8200, -42.119
 449.8300, -41.578
 449.8400, -42.053
 449.8500, -40.581
 449.8600, -40.053
 449.8700, -40.291
 449.8800, -40.485
 449.8900, -43.991
 449.9000, -43.575
 449.9100, -43.063
 449.9200, -44.935
 449.9300, -46.553
 449.9400, -47.032
 449.9500, -46.159
 449.9600, -47.559
 449.9700, -47.990
 449.9800, -48.147
 449.9900, -47.797
 450.0000, -47.523
 450.0100, -45.869
 450.0200, -44.256
 450.0300, -43.579
 450.0400, -43.530
 450.0500, -42.321
 450.0600, -41.413
 450.0700, -42.317
 450.0800, -43.337
 450.0900, -44.716
 450.1000, -45.986
 450.1100, -45.085
 450.1200, -46.190
 450.1300, -45.902
 450.1400, -45.419
 450.1500, -44.457
 450.1600, -41.902
 450.1700, -40.863
 450.1800, -40.639
 450.1900, -40.829
 450.2000, -41.260
 450.2100, -41.384
 450.2200, -41.934
 450.2300, -42.811
 450.2400, -43.260
 450.2500, -44.120
 450.2600, -44.073
 450.2700, -43.292
 450.2800, -42.531
 450.2900, -42.190
 450.3000, -42.007
 450.3100, -41.952
 450.3200, -41.559
 450.3300, -41.428
 450.3400, -41.035
 450.3500, -40.625
 450.3600, -40.764
 450.3700, -40.951
 450.3800, -40.079
 450.3900, -40.314
 450.4000, -38.483
 450.4100, -38.476
 450.4200, -38.442
 450.4300, -38.583
 450.4400, -38.375
 450.4500, -37.964
 450.4600, -38.338
 450.4700, -38.359
 450.4800, -38.613
 450.4900, -38.444
 450.5000, -37.743
 450.5100, -39.342
 450.5200, -40.506
 450.5300, -41.263
 450.5400, -41.033
 450.5500, -39.466
 450.5600, -40.106
 450.5700, -41.378
 450.5800, -40.707
 450.5900, -40.288
 450.6000, -40.500
 450.6100, -41.731
 450.6200, -40.828
 450.6300, -41.399
 450.6400, -41.543
 450.6500, -42.014
 450.6600, -48.172
 450.6700, -48.019
 450.6800, -50.509
 450.6900, -54.538
 450.7000, -55.305
 450.7100, -55.077
 450.7200, -54.420
 450.7300, -54.182
 450.7400, -53.854
 450.7500, -53.664
 450.7600, -53.259
 450.7700, -51.938
 450.7800, -49.950
 450.7900, -48.634
 450.8000, -47.447
 450.8100, -46.798
 450.8200, -47.100
 450.8300, -48.146
 450.8400, -45.622
 450.8500, -45.074
 450.8600, -45.076
 450.8700, -45.380
 450.8800, -46.553
 450.8900, -45.256
 450.9000, -44.208
 450.9100, -43.122
 450.9200, -42.403
 450.9300, -42.306
 450.9400, -42.102
 450.9500, -42.338
 450.9600, -42.389
 450.9700, -42.560
 450.9800, -42.726
 450.9900, -42.749
 451.0000, -43.232
 451.0100, -44.171
 451.0200, -43.232
 451.0300, -42.925
 451.0400, -41.951
 451.0500, -41.781
 451.0600, -41.739
 451.0700, -41.527
 451.0800, -41.482
 451.0900, -41.221
 451.1000, -41.706
 451.1100, -42.357
 451.1200, -42.304
 451.1300, -42.270
 451.1400, -42.156
 451.1500, -42.016
 451.1600, -41.551
 451.1700, -41.764
 451.1800, -41.584
 451.1900, -41.482
 451.2000, -41.275
 451.2100, -41.131
 451.2200, -40.717
 451.2300, -40.385
 451.2400, -40.146
 451.2500, -40.321
 451.2600, -39.876
 451.2700, -39.546
 451.2800, -39.411
 451.2900, -39.323
 451.3000, -39.326
 451.3100, -39.134
 451.3200, -39.011
 451.3300, -38.862
 451.3400, -39.011
 451.3500, -38.862
 451.3600, -38.818
 451.3700, -38.668
 451.3800, -38.584
 451.3900, -38.673
 451.4000, -38.574
 451.4100, -38.328
 451.4200, -38.139
 451.4300, -38.303
 451.4400, -38.161
 451.4500, -37.888
 451.4600, -37.758
 451.4700, -37.645
 451.4800, -37.595
 451.4900, -37.517
 451.5000, -37.347
 451.5100, -37.066
 451.5200, -36.906
 451.5300, -36.606
 451.5400, -36.535
 451.5500, -36.304
 451.5600, -36.389
 451.5700, -36.462
 451.5800, -36.615
 451.5900, -36.709
 451.6000, -36.792
 451.6100, -36.941
 451.6200, -37.133
 451.6300, -37.368
 451.6400, -37.664
 451.6500, -37.897
 451.6600, -38.250
 451.6700, -38.785
 451.6800, -39.230
 451.6900, -40.249
 451.7000, -40.860
 451.7100, -41.796
 451.7200, -41.919
 451.7300, -42.701
 451.7400, -43.180
 451.7500, -43.669
 451.7600, -44.379
 451.7700, -44.035
 451.7800, -44.302
 451.7900, -44.659
 451.8000, -44.964
 451.8100, -45.256
 451.8200, -45.439
 451.8300, -43.564
 451.8400, -42.862
 451.8500, -41.557
 451.8600, -41.647
 451.8700, -43.581
 451.8800, -41.835
 451.8900, -40.323
 451.9000, -40.542
 451.9100, -40.461
 451.9200, -41.953
 451.9300, -42.265
 451.9400, -41.091
 451.9500, -41.358
 451.9600, -40.883
 451.9700, -40.833
 451.9800, -41.827
 451.9900, -40.691
 452.0000, -39.958
 452.0100, -39.992
 452.0200, -39.863
 452.0300, -40.112
 452.0400, -40.162
 452.0500, -39.959
 452.0600, -40.205
 452.0700, -40.228
 452.0800, -40.076
 452.0900, -40.143
 452.1000, -39.896
 452.1100, -39.630
 452.1200, -39.585
 452.1300, -39.312
 452.1400, -39.765
 452.1500, -39.893
 452.1600, -39.634
 452.1700, -39.628
 452.1800, -39.775
 452.1900, -39.939
 452.2000, -40.194
 452.2100, -40.013
 452.2200, -39.814
 452.2300, -39.872
 452.2400, -39.906
 452.2500, -40.548
 452.2600, -40.470
 452.2700, -40.308
 452.2800, -40.204
 452.2900, -40.139
 452.3000, -40.297
 452.3100, -40.362
 452.3200, -40.677
 452.3300, -40.728
 452.3400, -40.888
 452.3500, -41.194
 452.3600, -40.744
 452.3700, -41.648
 452.3800, -42.642
 452.3900, -42.561
 452.4000, -42.709
 452.4100, -42.480
 452.4200, -42.269
 452.4300, -43.205
 452.4400, -43.349
 452.4500, -43.088
 452.4600, -42.861
 452.4700, -41.937
 452.4800, -42.447
 452.4900, -42.751
 452.5000, -42.737
 452.5100, -42.562
 452.5200, -41.995
 452.5300, -41.974
 452.5400, -42.223
 452.5500, -42.501
 452.5600, -42.897
 452.5700, -43.239
 452.5800, -44.050
 452.5900, -43.933
 452.6000, -43.506
 452.6100, -44.073
 452.6200, -44.034
 452.6300, -44.997
 452.6400, -45.731
 452.6500, -44.426
 452.6600, -43.885
 452.6700, -43.745
 452.6800, -43.694
 452.6900, -44.751
 452.7000, -44.456
 452.7100, -43.576
 452.7200, -43.414
 452.7300, -43.229
 452.7400, -44.091
 452.7500, -44.522
 452.7600, -44.683
 452.7700, -44.473
 452.7800, -44.207
 452.7900, -45.064
 452.8000, -44.626
 452.8100, -46.076
 452.8200, -46.402
 452.8300, -46.795
 452.8400, -47.866
 452.8500, -46.575
 452.8600, -46.586
 452.8700, -49.884
 452.8800, -50.375
 452.8900, -52.121
 452.9000, -51.001
 452.9100, -48.320
 452.9200, -53.113
 452.9300, -56.153
 452.9400, -53.360
 452.9500, -53.819
 452.9600, -51.288
 452.9700, -51.382
 452.9800, -52.184
 452.9900, -51.627
 453.0000, -50.954
 453.0100, -49.800
 453.0200, -47.880
 453.0300, -47.416
 453.0400, -47.342
 453.0500, -47.277
 453.0600, -47.145
 453.0700, -47.117
 453.0800, -47.547
 453.0900, -48.250
 453.1000, -49.318
 453.1100, -50.532
 453.1200, -51.660
 453.1300, -54.810
 453.1400, -50.709
 453.1500, -49.230
 453.1600, -48.682
 453.1700, -47.694
 453.1800, -53.893
 453.1900, -53.558
 453.2000, -47.583
 453.2100, -48.401
 453.2200, -49.067
 453.2300, -51.907
 453.2400, -57.857
 453.2500, -61.797
 453.2600, -64.666
 453.2700, -66.225
 453.2800, -67.103
 453.2900, -67.993
 453.3000, -67.434
 453.3100, -66.737
 453.3200, -65.763
 453.3300, -67.502
 453.3400, -71.377
 453.3500, -69.983
 453.3600, -71.234
 453.3700, -69.251
 453.3800, -69.408
 453.3900, -67.188
 453.4000, -69.244
 453.4100, -68.984
 453.4200, -68.641
 453.4300, -67.606
 453.4400, -69.243
 453.4500, -69.598
 453.4600, -69.227
 453.4700, -74.526
 453.4800, -70.476
 453.4900, -68.032
 453.5000, -69.606
 453.5100, -67.234
 453.5200, -70.194
 453.5300, -67.524
 453.5400, -69.003
 453.5500, -69.631
 453.5600, -69.602
 453.5700, -70.429
 453.5800, -68.685
 453.5900, -70.151
 453.6000, -68.496
 453.6100, -69.146
 453.6200, -71.976
 453.6300, -69.708
 453.6400, -70.205
 453.6500, -69.047
 453.6600, -70.988
 453.6700, -71.927
 453.6800, -69.047
 453.6900, -69.935
 453.7000, -68.539
 453.7100, -70.417
 453.7200, -75.732
 453.7300, -69.235
 453.7400, -69.898
 453.7500, -71.051
 453.7600, -71.879
 453.7700, -71.694
 453.7800, -71.813
 453.7900, -71.241
 453.8000, -70.710
 453.8100, -72.240
 453.8200, -71.313
 453.8300, -68.860
 453.8400, -68.724
 453.8500, -71.561
 453.8600, -70.023
 453.8700, -71.954
 453.8800, -70.467
 453.8900, -71.617
 453.9000, -74.888
 453.9100, -69.770
 453.9200, -73.767
 453.9300, -70.540
 453.9400, -69.598
 453.9500, -69.137
 453.9600, -69.541
 453.9700, -75.210
 453.9800, -72.393
 453.9900, -71.369
 454.0000, -72.727
 454.0100, -70.520
 454.0200, -74.926
 454.0300, -70.703
 454.0400, -83.947
 454.0500,-210.000
 454.0600, -69.408
 454.0700, -70.430
 454.0800, -71.201
 454.0900,-210.000
 454.1000, -81.394
 454.1100, -73.243
 454.1200, -70.260
 454.1300, -70.235
 454.1400, -70.949
 454.1500, -86.642
 454.1600,-210.000
 454.1700, -69.373
 454.1800, -74.540
 454.1900, -74.574
 454.2000, -73.899
 454.2100, -68.317
 454.2200, -73.216
 454.2300, -88.315
 454.2400, -69.923
 454.2500, -76.383
 454.2600, -72.059
 454.2700, -69.465
 454.2800, -75.387
 454.2900, -75.064
 454.3000, -73.834
 454.3100, -72.410
 454.3200, -70.315
 454.3300, -69.674
 454.3400, -69.968
 454.3500, -76.429
 454.3600, -71.629
 454.3700,-210.000
 454.3800, -75.767
 454.3900, -73.150
 454.4000, -77.954
 454.4100, -72.001
 454.4200, -68.475
 454.4300, -69.972
 454.4400,-210.000
 454.4500, -71.970
 454.4600,-210.000
 454.4700, -69.617
 454.4800, -69.871
 454.4900, -74.875
 454.5000, -78.430
 454.5100, -75.583
 454.5200, -71.902
 454.5300, -71.955
 454.5400, -73.839
 454.5500, -92.504
 454.5600, -69.824
 454.5700, -72.722
 454.5800, -71.156
 454.5900, -72.811
 454.6000, -69.468
 454.6100, -73.763
 454.6200, -72.032
 454.6300, -69.993
 454.6400, -73.491
 454.6500, -78.107
 454.6600, -72.834
 454.6700, -77.413
 454.6800, -75.920
 454.6900, -80.441
 454.7000, -72.713
 454.7100, -71.296
 454.7200, -72.299
 454.7300, -77.033
 454.7400, -76.149
 454.7500, -70.905
 454.7600, -72.863
 454.7700, -76.069
 454.7800, -68.944
 454.7900, -69.498
 454.8000, -78.527
 454.8100, -71.460
 454.8200, -73.262
 454.8300, -74.048
 454.8400, -72.094
 454.8500, -74.402
 454.8600, -71.999
 454.8700, -72.713
 454.8800, -71.123
 454.8900, -69.049
 454.9000, -76.578
 454.9100, -70.066
 454.9200,-210.000
 454.9300, -85.690
 454.9400, -73.813
 454.9500, -72.297
 454.9600, -73.042
 454.9700, -78.951
 454.9800, -75.325
 454.9900, -72.209
 455.0000, -72.816
 455.0100, -72.234
 455.0200, -78.507
 455.0300, -71.000
 455.0400, -73.587
 455.0500,-210.000
 455.0600,-210.000
 455.0700, -68.981
 455.0800, -76.317
 455.0900, -81.430
 455.1000,-210.000
 455.1100, -81.054
 455.1200, -76.018
 455.1300, -70.550
 455.1400,-210.000
 455.1500, -75.123
 455.1600,-210.000
 455.1700,-210.000
 455.1800, -77.381
 455.1900, -72.649
 455.2000, -74.206
 455.2100, -70.796
 455.2200, -77.992
 455.2300, -75.276
 455.2400, -77.739
 455.2500, -69.824
 455.2600, -70.591
 455.2700, -72.486
 455.2800, -68.977
 455.2900, -72.168
 455.3000,-210.000
 455.3100, -73.459
 455.3200, -94.049
 455.3300,-210.000
 455.3400, -72.594
 455.3500, -79.127
 455.3600, -76.933
 455.3700, -75.340
 455.3800,-210.000
 455.3900, -80.285
 455.4000, -72.093
 455.4100, -74.925
 455.4200,-210.000
 455.4300, -73.433
 455.4400, -73.889
 455.4500, -70.979
 455.4600, -79.200
 455.4700, -73.208
 455.4800,-210.000
 455.4900, -79.139
 455.5000, -72.800
 455.5100, -73.080
 455.5200,-210.000
 455.5300, -78.892
 455.5400, -80.274
 455.5500, -71.815
 455.5600, -72.019
 455.5700, -76.265
 455.5800,-210.000
 455.5900,-210.000
 455.6000,-210.000
 455.6100, -70.769
 455.6200, -81.684
 455.6300, -73.768
 455.6400, -74.438
 455.6500, -73.778
 455.6600,-210.000
 455.6700,-210.000
 455.6800, -74.315
 455.6900, -76.779
 455.7000, -77.812
 455.7100, -71.405
 455.7200,-210.000
 455.7300, -76.676
 455.7400, -72.398
 455.7500,-210.000
 455.7600, -83.888
 455.7700, -79.257
 455.7800, -81.229
 455.7900, -76.137
 455.8000, -74.268
 455.8100, -81.346
 455.8200, -71.888
 455.8300,-210.000
 455.8400,-210.000
 455.8500, -75.969
 455.8600, -70.875
 455.8700, -72.691
 455.8800, -74.028
 455.8900, -79.630
 455.9000, -73.315
 455.9100, -80.159
 455.9200,-210.000
 455.9300, -79.062
 455.9400, -72.600
 455.9500, -81.923
 455.9600, -85.975
 455.9700, -76.934
 455.9800,-210.000
 455.9900, -71.846
 456.0000, -71.919
 456.0100, -79.704
 456.0200,-210.000
 456.0300, -76.836
 456.0400, -75.928
 456.0500, -76.294
 456.0600, -77.051
 456.0700, -77.433
 456.0800,-210.000
 456.0900, -76.492
 456.1000, -76.061
 456.1100, -82.250
 456.1200, -91.265
 456.1300,-210.000
 456.1400, -71.724
 456.1500, -74.357
 456.1600, -71.860
 456.1700, -90.851
 456.1800,-210.000
 456.1900, -73.648
 456.2000, -68.819
 456.2100,-210.000
 456.2200, -73.869
 456.2300, -73.625
 456.2400, -83.332
 456.2500, -74.319
 456.2600, -79.789
 456.2700, -70.459
 456.2800,-210.000
 456.2900, -72.185
 456.3000,-210.000
 456.3100, -83.055
 456.3200,-210.000
 456.3300, -72.986
 456.3400,-210.000
 456.3500,-210.000
 456.3600, -73.107
 456.3700,-210.000
 456.3800, -73.909
 456.3900,-210.000
 456.4000, -71.552
 456.4100, -75.827
 456.4200, -79.294
 456.4300,-210.000
 456.4400, -74.111
 456.4500,-210.000
 456.4600, -73.187
 456.4700,-210.000
 456.4800, -74.123
 456.4900,-210.000
 456.5000, -80.944
 456.5100, -74.232
 456.5200, -79.678
 456.5300, -72.326
 456.5400,-210.000
 456.5500,-210.000
 456.5600, -78.903
 456.5700, -71.725
 456.5800, -76.881
 456.5900,-210.000
 456.6000, -86.992
 456.6100, -75.341
 456.6200, -74.496
 456.6300, -82.892
 456.6400, -74.702
 456.6500,-210.000
 456.6600, -81.081
 456.6700,-210.000
 456.6800,-210.000
 456.6900, -81.348
 456.7000, -76.742
 456.7100,-210.000
 456.7200, -75.113
 456.7300,-210.000
 456.7400, -81.526
 456.7500, -82.565
 456.7600, -72.937
 456.7700,-210.000
 456.7800, -72.270
 456.7900, -79.286
 456.8000,-210.000
 456.8100, -73.165
 456.8200, -76.685
 456.8300, -76.349
 456.8400, -72.264
 456.8500, -80.853
 456.8600, -71.818
 456.8700, -71.784
 456.8800, -73.632
 456.8900,-210.000
 456.9000, -76.968
 456.9100, -77.483
 456.9200, -71.200
 456.9300,-210.000
 456.9400,-210.000
 456.9500, -73.770
 456.9600,-210.000
 456.9700, -75.609
 456.9800, -77.161
 456.9900, -72.994
 457.0000, -72.997
 457.0100, -77.033
 457.0200,-210.000
 457.0300, -79.157
 457.0400, -72.262
 457.0500,-210.000
 457.0600, -75.237
 457.0700, -70.940
 457.0800, -82.228
 457.0900, -79.171
 457.1000, -74.207
 457.1100,-210.000
 457.1200,-210.000
 457.1300, -82.223
 457.1400,-210.000
 457.1500, -72.882
 457.1600, -81.526
 457.1700, -80.459
 457.1800,-210.000
 457.1900, -72.681
 457.2000, -78.205
 457.2100,-210.000
 457.2200, -72.517
 457.2300,-210.000
 457.2400,-210.000
 457.2500, -84.579
 457.2600,-210.000
 457.2700, -91.497
 457.2800, -74.528
 457.2900,-210.000
 457.3000, -78.085
 457.3100,-210.000
 457.3200, -69.439
 457.3300, -70.671
 457.3400, -81.780
 457.3500, -72.170
 457.3600, -74.105
 457.3700,-210.000
 457.3800, -77.341
 457.3900, -78.637
 457.4000,-210.000
 457.4100, -73.144
 457.4200,-210.000
 457.4300, -76.680
 457.4400,-210.000
 457.4500, -79.871
 457.4600, -81.893
 457.4700,-210.000
 457.4800,-210.000
 457.4900, -72.614
 457.5000, -72.437
 457.5100, -74.080
 457.5200, -75.294
 457.5300,-210.000
 457.5400,-210.000
 457.5500,-210.000
 457.5600, -73.410
 457.5700, -85.436
 457.5800, -73.471
 457.5900, -72.785
 457.6000,-210.000
 457.6100, -77.111
 457.6200, -70.325
 457.6300, -71.046
 457.6400,-210.000
 457.6500, -75.145
 457.6600,-210.000
 457.6700,-210.000
 457.6800, -72.707
 457.6900, -80.042
 457.7000, -76.914
 457.7100, -72.886
 457.7200,-210.000
 457.7300, -85.908
 457.7400,-210.000
 457.7500, -70.270
 457.7600, -88.156
 457.7700, -73.790
 457.7800, -75.789
 457.7900, -75.952
 457.8000, -71.964
 457.8100,-210.000
 457.8200, -70.991
 457.8300,-210.000
 457.8400, -77.885
 457.8500,-210.000
 457.8600, -74.431
 457.8700, -77.203
 457.8800, -82.471
 457.8900, -73.556
 457.9000, -73.644
 457.9100, -74.711
 457.9200, -71.173
 457.9300,-210.000
 457.9400,-210.000
 457.9500, -79.095
 457.9600, -73.380
 457.9700,-210.000
 457.9800, -79.095
 457.9900, -74.245
 458.0000,-210.000
 458.0100,-210.000
 458.0200,-210.000
 458.0300, -69.606
 458.0400,-210.000
 458.0500, -76.942
 458.0600,-210.000
 458.0700, -88.360
 458.0800, -74.024
 458.0900,-210.000
 458.1000, -79.946
 458.1100, -71.622
 458.1200,-210.000
 458.1300, -71.791
 458.1400,-210.000
 458.1500, -88.631
 458.1600, -72.039
 458.1700, -73.356
 458.1800,-210.000
 458.1900, -84.527
 458.2000, -71.253
 458.2100, -76.436
 458.2200, -79.873
 458.2300, -72.032
 458.2400, -73.324
 458.2500,-210.000
 458.2600, -77.158
 458.2700, -73.138
 458.2800, -77.898
 458.2900, -84.083
 458.3000,-210.000
 458.3100,-210.000
 458.3200, -81.746
 458.3300, -72.860
 458.3400, -81.012
 458.3500,-210.000
 458.3600, -72.117
 458.3700, -79.341
 458.3800, -75.784
 458.3900,-210.000
 458.4000,-210.000
 458.4100,-210.000
 458.4200, -75.754
 458.4300, -75.944
 458.4400, -73.961
 458.4500, -74.769
 458.4600, -76.210
 458.4700, -76.884
 458.4800,-210.000
 458.4900,-210.000
 458.5000, -84.756
 458.5100,-210.000
 458.5200,-210.000
 458.5300, -72.042
 458.5400,-210.000
 458.5500, -76.638
 458.5600,-210.000
 458.5700, -86.310
 458.5800, -73.876
 458.5900,-210.000
 458.6000, -79.144
 458.6100, -89.338
 458.6200,-210.000
 458.6300, -80.006
 458.6400,-210.000
 458.6500, -73.525
 458.6600, -80.406
 458.6700,-210.000
 458.6800,-210.000
 458.6900, -76.170
 458.7000,-210.000
 458.7100,-210.000
 458.7200, -72.970
 458.7300, -76.172
 458.7400, -74.564
 458.7500, -75.659
 458.7600, -84.168
 458.7700, -75.651
 458.7800, -72.324
 458.7900, -75.803
 458.8000,-210.000
 458.8100, -84.614
 458.8200, -80.334
 458.8300, -74.214
 458.8400, -72.458
 458.8500,-210.000
 458.8600, -77.320
 458.8700, -74.237
 458.8800, -78.158
 458.8900, -73.853
 458.9000,-210.000
 458.9100, -72.291
 458.9200,-210.000
 458.9300, -72.571
 458.9400, -78.314
 458.9500, -73.035
 458.9600, -94.807
 458.9700, -73.317
 458.9800,-210.000
 458.9900,-210.000
 459.0000, -79.640
 459.0100, -72.167
 459.0200, -74.689
 459.0300, -71.998
 459.0400, -73.522
 459.0500, -77.797
 459.0600,-210.000
 459.0700, -73.438
 459.0800,-210.000
 459.0900,-210.000
 459.1000,-210.000
 459.1100, -73.131
 459.1200, -77.123
 459.1300, -76.037
 459.1400, -72.519
 459.1500, -77.602
 459.1600, -76.555
 459.1700, -73.189
 459.1800,-210.000
 459.1900,-210.000
 459.2000, -80.912
 459.2100,-210.000
 459.2200,-210.000
 459.2300,-210.000
 459.2400, -75.094
 459.2500, -74.181
 459.2600, -73.990
 459.2700,-210.000
 459.2800,-210.000
 459.2900, -76.625
 459.3000, -73.912
 459.3100, -77.631
 459.3200, -73.704
 459.3300, -74.808
 459.3400, -83.395
 459.3500, -71.645
 459.3600, -88.504
 459.3700,-210.000
 459.3800,-210.000
 459.3900, -79.706
 459.4000, -78.496
 459.4100,-210.000
 459.4200, -75.426
 459.4300,-210.000
 459.4400,-210.000
 459.4500,-210.000
 459.4600, -72.880
 459.4700, -73.837
 459.4800, -77.182
 459.4900, -72.933
 459.5000,-210.000
 459.5100, -72.754
 459.5200,-210.000
 459.5300, -75.722
 459.5400,-210.000
 459.5500, -73.559
 459.5600, -70.859
 459.5700, -78.788
 459.5800, -73.399
 459.5900, -81.534
 459.6000, -75.502
 459.6100, -71.366
 459.6200, -81.347
 459.6300, -78.801
 459.6400, -71.946
 459.6500, -86.121
 459.6600, -76.887
 459.6700, -80.445
 459.6800,-210.000
 459.6900,-210.000
 459.7000,-210.000
 459.7100, -82.096
 459.7200, -76.782
 459.7300, -71.399
 459.7400,-210.000
 459.7500, -75.881
 459.7600, -74.256
 459.7700,-210.000
 459.7800, -73.182
 459.7900,-210.000
 459.8000, -71.820
 459.8100,-210.000
 459.8200,-210.000
 459.8300, -72.237
 459.8400, -77.143
 459.8500,-210.000
 459.8600, -70.885
 459.8700, -71.148
 459.8800, -75.961
 459.8900,-210.000
 459.9000, -71.869
 459.9100,-210.000
 459.9200, -72.721
 459.9300, -77.417
 459.9400, -74.726
 459.9500, -78.102
 459.9600, -75.489
 459.9700,-210.000
 459.9800,-210.000
 459.9900, -77.849
 460.0000, -71.129
 460.0100, -81.165
 460.0200,-210.000
 460.0300,-210.000
 460.0400, -72.794
 460.0500, -72.371
 460.0600,-210.000
 460.0700, -73.470
 460.0800,-210.000
 460.0900,-210.000
 460.1000, -73.678
 460.1100,-210.000
 460.1200,-210.000
 460.1300,-210.000
 460.1400, -76.981
 460.1500,-210.000
 460.1600, -81.178
 460.1700, -72.795
 460.1800,-210.000
 460.1900, -71.272
 460.2000, -73.265
 460.2100,-210.000
 460.2200, -72.817
 460.2300,-210.000
 460.2400,-210.000
 460.2500, -73.153
 460.2600,-210.000
 460.2700, -72.852
 460.2800,-210.000
 460.2900, -73.106
 460.3000, -83.443
 460.3100, -73.650
 460.3200, -70.882
 460.3300, -81.447
 460.3400, -80.683
 460.3500, -79.273
 460.3600,-210.000
 460.3700, -73.750
 460.3800, -76.974
 460.3900, -80.850
 460.4000, -73.573
 460.4100,-210.000
 460.4200, -73.881
 460.4300, -71.282
 460.4400, -83.414
 460.4500, -77.562
 460.4600, -70.707
 460.4700, -74.455
 460.4800, -75.766
 460.4900,-210.000
 460.5000, -82.008
 460.5100, -76.572
 460.5200, -83.789
 460.5300,-210.000
 460.5400,-210.000
 460.5500, -71.692
 460.5600,-210.000
 460.5700,-210.000
 460.5800,-210.000
 460.5900, -74.446
 460.6000,-210.000
 460.6100, -77.366
 460.6200, -82.945
 460.6300,-210.000
 460.6400, -82.322
 460.6500,-210.000
 460.6600, -73.208
 460.6700, -74.008
 460.6800, -73.366
 460.6900,-210.000
 460.7000, -80.242
 460.7100, -75.149
 460.7200, -86.240
 460.7300,-210.000
 460.7400, -75.878
 460.7500, -84.709
 460.7600, -71.412
 460.7700,-210.000
 460.7800, -77.353
 460.7900,-210.000
 460.8000,-210.000
 460.8100, -83.040
 460.8200, -74.102
 460.8300, -73.500
 460.8400,-210.000
 460.8500,-210.000
 460.8600, -74.640
 460.8700, -74.365
 460.8800, -74.670
 460.8900,-210.000
 460.9000, -73.753
 460.9100,-210.000
 460.9200,-210.000
 460.9300, -78.170
 460.9400, -71.269
 460.9500, -77.465
 460.9600, -92.353
 460.9700, -80.756
 460.9800,-210.000
 460.9900, -80.280
 461.0000, -78.230
 461.0100, -73.187
 461.0200,-210.000
 461.0300, -76.380
 461.0400, -80.465
 461.0500,-210.000
 461.0600,-210.000
 461.0700, -71.160
 461.0800, -75.203
 461.0900, -73.053
 461.1000, -73.875
 461.1100, -76.391
 461.1200,-210.000
 461.1300,-210.000
 461.1400,-210.000
 461.1500, -76.438
 461.1600, -78.022
 461.1700,-210.000
 461.1800,-210.000
 461.1900, -73.992
 461.2000, -75.606
 461.2100, -91.333
 461.2200,-210.000
 461.2300,-210.000
 461.2400, -72.701
 461.2500,-210.000
 461.2600,-210.000
 461.2700,-210.000
 461.2800, -74.816
 461.2900,-210.000
 461.3000, -77.763
 461.3100, -73.319
 461.3200,-210.000
 461.3300, -71.106
 461.3400,-210.000
 461.3500,-210.000
 461.3600, -73.652
 461.3700,-210.000
 461.3800, -73.483
 461.3900,-210.000
 461.4000,-210.000
 461.4100,-210.000
 461.4200, -72.332
 461.4300, -76.677
 461.4400, -76.551
 461.4500, -79.401
 461.4600,-210.000
 461.4700, -73.903
 461.4800, -76.613
 461.4900, -72.857
 461.5000,-210.000
 461.5100,-210.000
 461.5200,-210.000
 461.5300,-210.000
 461.5400,-210.000
 461.5500, -74.038
 461.5600,-210.000
 461.5700, -77.233
 461.5800,-210.000
 461.5900,-210.000
 461.6000,-210.000
 461.6100, -78.482
 461.6200,-210.000
 461.6300, -80.404
 461.6400,-210.000
 461.6500, -73.434
 461.6600, -73.700
 461.6700,-210.000
 461.6800, -73.359
 461.6900, -81.250
 461.7000, -72.692
 461.7100,-210.000
 461.7200, -81.071
 461.7300, -73.244
 461.7400, -74.306
 461.7500, -77.204
 461.7600, -76.574
 461.7700, -72.455
 461.7800, -72.439
 461.7900,-210.000
 461.8000, -78.167
 461.8100,-210.000
 461.8200, -82.139
 461.8300, -79.450
 461.8400,-210.000
 461.8500,-210.000
 461.8600,-210.000
 461.8700,-210.000
 461.8800,-210.000
 461.8900, -81.439
 461.9000, -79.573
 461.9100,-210.000
 461.9200,-210.000
 461.9300, -77.303
 461.9400,-210.000
 461.9500, -75.516
 461.9600,-210.000
 461.9700,-210.000
 461.9800, -72.779
 461.9900, -75.297
 462.0000, -85.999
 462.0100,-210.000
 462.0200, -83.513
 462.0300, -83.200
 462.0400, -79.546
 462.0500,-210.000
 462.0600, -73.822
 462.0700,-210.000
 462.0800, -75.169
 462.0900, -82.209
 462.1000,-210.000
 462.1100, -72.746
 462.1200, -73.636
 462.1300,-210.000
 462.1400, -72.247
 462.1500, -76.831
 462.1600,-210.000
 462.1700,-210.000
 462.1800, -71.618
 462.1900, -73.286
 462.2000,-210.000
 462.2100, -73.206
 462.2200,-210.000
 462.2300, -71.135
 462.2400, -77.455
 462.2500, -73.627
 462.2600, -76.569
 462.2700, -73.494
 462.2800,-210.000
 462.2900,-210.000
 462.3000, -74.287
 462.3100, -73.335
 462.3200, -72.230
 462.3300, -74.321
 462.3400, -72.741
 462.3500,-210.000
 462.3600, -78.259
 462.3700,-210.000
 462.3800, -74.342
 462.3900, -75.922
 462.4000, -95.017
 462.4100, -73.072
 462.4200, -72.782
 462.4300,-210.000
 462.4400, -76.889
 462.4500,-210.000
 462.4600, -75.585
 462.4700, -82.981
 462.4800,-210.000
 462.4900,-210.000
 462.5000, -73.395
 462.5100, -75.041
 462.5200, -73.725
 462.5300, -79.424
 462.5400,-210.000
 462.5500, -73.914
 462.5600, -79.158
 462.5700,-210.000
 462.5800, -75.040
 462.5900,-210.000
 462.6000,-210.000
 462.6100, -72.717
 462.6200, -77.217
 462.6300, -80.541
 462.6400, -72.468
 462.6500, -77.634
 462.6600,-210.000
 462.6700,-210.000
 462.6800,-210.000
 462.6900,-210.000
 462.7000, -72.176
 462.7100, -72.822
 462.7200, -74.766
 462.7300, -73.227
 462.7400,-210.000
 462.7500, -74.223
 462.7600, -75.498
 462.7700, -72.221
 462.7800, -75.938
 462.7900, -77.728
 462.8000, -71.893
 462.8100, -75.747
 462.8200, -81.664
 462.8300,-210.000
 462.8400, -77.922
 462.8500,-210.000
 462.8600, -75.391
 462.8700,-210.000
 462.8800, -76.867
 462.8900, -78.245
 462.9000,-210.000
 462.9100,-210.000
 462.9200,-210.000
 462.9300,-210.000
 462.9400,-210.000
 462.9500, -81.966
 462.9600,-210.000
 462.9700, -81.482
 462.9800,-210.000
 462.9900, -81.040
 463.0000, -75.252
 463.0100, -72.881
 463.0200, -73.392
 463.0300, -79.247
 463.0400, -77.660
 463.0500,-210.000
 463.0600,-210.000
 463.0700,-210.000
 463.0800, -92.840
 463.0900,-210.000
 463.1000,-210.000
 463.1100,-210.000
 463.1200, -74.911
 463.1300,-210.000
 463.1400, -77.008
 463.1500,-210.000
 463.1600, -71.493
 463.1700, -78.481
 463.1800,-210.000
 463.1900, -78.627
 463.2000, -75.463
 463.2100,-210.000
 463.2200,-210.000
 463.2300,-210.000
 463.2400, -72.517
 463.2500, -75.499
 463.2600, -96.720
 463.2700, -74.419
 463.2800, -75.571
 463.2900, -78.368
 463.3000,-210.000
 463.3100, -72.993
 463.3200, -73.106
 463.3300,-210.000
 463.3400, -73.202
 463.3500,-210.000
 463.3600, -77.259
 463.3700,-210.000
 463.3800,-210.000
 463.3900, -74.996
 463.4000,-210.000
 463.4100, -75.115
 463.4200, -75.256
 463.4300,-210.000
 463.4400, -81.554
 463.4500,-210.000
 463.4600, -73.064
 463.4700,-210.000
 463.4800,-210.000
 463.4900, -76.844
 463.5000,-210.000
 463.5100, -76.578
 463.5200,-210.000
 463.5300, -75.847
 463.5400,-210.000
 463.5500, -72.026
 463.5600, -83.717
 463.5700, -72.367
 463.5800,-210.000
 463.5900,-210.000
 463.6000, -78.160
 463.6100, -75.840
 463.6200, -72.336
 463.6300,-210.000
 463.6400,-210.000
 463.6500, -80.292
 463.6600, -75.612
 463.6700, -85.717
 463.6800,-210.000
 463.6900, -73.746
 463.7000,-210.000
 463.7100, -88.780
 463.7200, -78.789
 463.7300,-210.000
 463.7400, -70.918
 463.7500, -77.592
 463.7600, -79.368
 463.7700,-210.000
 463.7800, -71.456
 463.7900,-210.000
 463.8000, -77.774
 463.8100,-210.000
 463.8200, -78.488
 463.8300,-210.000
 463.8400,-210.000
 463.8500,-210.000
 463.8600,-210.000
 463.8700,-210.000
 463.8800,-210.000
 463.8900, -76.834
 463.9000, -76.562
 463.9100,-210.000
 463.9200, -73.953
 463.9300, -78.335
 463.9400,-210.000
 463.9500, -81.299
 463.9600,-210.000
 463.9700,-210.000
 463.9800,-210.000
 463.9900, -76.955
 464.0000, -75.169
 464.0100, -72.919
 464.0200, -74.036
 464.0300,-210.000
 464.0400, -80.125
 464.0500, -73.190
 464.0600, -87.338
 464.0700,-210.000
 464.0800, -73.503
 464.0900,-210.000
 464.1000, -73.281
 464.1100,-210.000
 464.1200,-210.000
 464.1300, -86.529
 464.1400, -73.056
 464.1500,-210.000
 464.1600, -78.389
 464.1700, -75.574
 464.1800, -76.410
 464.1900,-210.000
 464.2000,-210.000
 464.2100, -86.435
 464.2200,-210.000
 464.2300, -83.813
 464.2400, -80.637
 464.2500, -73.867
 464.2600, -82.251
 464.2700, -77.163
 464.2800, -75.020
 464.2900,-210.000
 464.3000, -81.576
 464.3100,-210.000
 464.3200,-210.000
 464.3300, -78.801
 464.3400,-210.000
 464.3500,-210.000
 464.3600,-210.000
 464.3700,-210.000
 464.3800, -75.634
 464.3900, -73.822
 464.4000, -79.042
 464.4100,-210.000
 464.4200,-210.000
 464.4300,-210.000
 464.4400,-210.000
 464.4500, -77.613
 464.4600,-210.000
 464.4700,-210.000
 464.4800, -72.422
 464.4900, -83.872
 464.5000,-210.000
 464.5100,-210.000
 464.5200,-210.000
 464.5300, -73.589
 464.5400, -77.513
 464.5500, -77.695
 464.5600,-210.000
 464.5700,-210.000
 464.5800, -77.065
 464.5900,-210.000
 464.6000,-210.000
 464.6100, -74.776
 464.6200, -71.043
 464.6300, -73.190
 464.6400, -73.996
 464.6500, -80.051
 464.6600, -75.637
 464.6700, -81.254
 464.6800,-210.000
 464.6900, -76.774
 464.7000, -75.281
 464.7100,-210.000
 464.7200,-210.000
 464.7300, -80.185
 464.7400, -79.062
 464.7500, -82.816
 464.7600,-210.000
 464.7700,-210.000
 464.7800, -72.696
 464.7900, -87.702
 464.8000, -79.643
 464.8100, -75.932
 464.8200, -72.343
 464.8300,-210.000
 464.8400,-210.000
 464.8500,-210.000
 464.8600, -70.477
 464.8700, -73.030
 464.8800,-210.000
 464.8900,-210.000
 464.9000,-210.000
 464.9100, -81.373
 464.9200, -73.104
 464.9300,-210.000
 464.9400,-210.000
 464.9500,-210.000
 464.9600,-210.000
 464.9700, -73.176
 464.9800,-210.000
 464.9900,-210.000
 465.0000,-210.000
