73CSV  	
// AQ6373B OPTICAL SPECTRUM ANALYZER //                 
35
"CTRWL", 450.000000
"SPAN",  30.000000
"START WL", 435.000000
"STOP WL", 465.000000
"WLFREQ", 0
"REFL",-40.4
"LSCL",10.0
"RESLN",0.050
"AVG",   1
"SMPLAUTO",      1
"SMPL",       3001
"SMPLINTVL",0.0100
"HIGH1"
"MEAS"
"LSUNT",0
"NMSKH","OFF"
"RESCOR",0
"SMOOTH",0
"MEASWL",0
"SWPSPD",0
"CHGPT",         -1
"RESCAL0_0",       9389
"RESCAL0_1",        538
"RESCAL0_2",    -340913
"RESCAL1_0",       9652
"RESCAL1_1",         64
"RESCAL1_2",     -41039
"CORESIZE", 0







"[TRACE DATA]"
 435.0000, -71.774
 435.0100,-210.000
 435.0200, -74.621
 435.0300, -74.859
 435.0400,-210.000
 435.0500, -76.057
 435.0600, -70.271
 435.0700, -86.699
 435.0800,-210.000
 435.0900, -72.529
 435.1000, -85.612
 435.1100, -71.656
 435.1200,-210.000
 435.1300, -82.841
 435.1400,-210.000
 435.1500, -71.998
 435.1600,-210.000
 435.1700, -76.214
 435.1800, -80.097
 435.1900, -86.906
 435.2000, -74.771
 435.2100,-210.000
 435.2200,-210.000
 435.2300,-210.000
 435.2400, -80.060
 435.2500,-210.000
 435.2600,-210.000
 435.2700, -74.181
 435.2800,-210.000
 435.2900, -75.224
 435.3000, -71.388
 435.3100, -80.571
 435.3200, -70.166
 435.3300, -70.999
 435.3400,-210.000
 435.3500, -70.888
 435.3600, -75.315
 435.3700, -72.956
 435.3800, -74.358
 435.3900, -72.637
 435.4000, -74.151
 435.4100, -76.252
 435.4200, -77.051
 435.4300, -73.925
 435.4400, -81.531
 435.4500, -78.035
 435.4600, -85.310
 435.4700, -73.338
 435.4800, -74.280
 435.4900,-210.000
 435.5000, -78.341
 435.5100, -73.537
 435.5200, -72.824
 435.5300,-210.000
 435.5400, -70.529
 435.5500, -76.943
 435.5600, -78.101
 435.5700,-210.000
 435.5800,-210.000
 435.5900,-210.000
 435.6000,-210.000
 435.6100, -74.645
 435.6200,-210.000
 435.6300, -69.421
 435.6400, -76.004
 435.6500, -69.815
 435.6600,-210.000
 435.6700, -81.455
 435.6800, -77.912
 435.6900, -73.050
 435.7000, -79.750
 435.7100, -70.700
 435.7200, -79.005
 435.7300, -81.576
 435.7400, -69.591
 435.7500, -75.786
 435.7600, -78.102
 435.7700, -76.284
 435.7800,-210.000
 435.7900,-210.000
 435.8000,-210.000
 435.8100,-210.000
 435.8200, -71.684
 435.8300, -77.610
 435.8400, -79.502
 435.8500, -69.227
 435.8600,-210.000
 435.8700,-210.000
 435.8800,-210.000
 435.8900, -73.544
 435.9000,-210.000
 435.9100,-210.000
 435.9200,-210.000
 435.9300,-210.000
 435.9400, -71.021
 435.9500, -72.284
 435.9600,-210.000
 435.9700, -75.297
 435.9800, -72.216
 435.9900,-210.000
 436.0000, -81.334
 436.0100, -74.185
 436.0200, -72.619
 436.0300,-210.000
 436.0400,-210.000
 436.0500, -73.177
 436.0600,-210.000
 436.0700,-210.000
 436.0800, -72.277
 436.0900, -76.320
 436.1000,-210.000
 436.1100,-210.000
 436.1200,-210.000
 436.1300, -89.581
 436.1400,-210.000
 436.1500, -75.200
 436.1600,-210.000
 436.1700, -69.798
 436.1800, -75.813
 436.1900,-210.000
 436.2000, -77.088
 436.2100, -69.614
 436.2200, -77.689
 436.2300, -73.498
 436.2400,-210.000
 436.2500,-210.000
 436.2600, -73.746
 436.2700, -76.581
 436.2800, -69.425
 436.2900, -70.683
 436.3000,-210.000
 436.3100,-210.000
 436.3200, -71.719
 436.3300, -74.763
 436.3400,-210.000
 436.3500,-210.000
 436.3600,-210.000
 436.3700, -75.752
 436.3800, -73.716
 436.3900, -95.314
 436.4000, -72.089
 436.4100, -68.955
 436.4200,-210.000
 436.4300,-210.000
 436.4400,-210.000
 436.4500, -71.710
 436.4600, -74.710
 436.4700,-210.000
 436.4800, -72.660
 436.4900,-210.000
 436.5000, -77.871
 436.5100, -76.167
 436.5200,-210.000
 436.5300,-210.000
 436.5400, -73.797
 436.5500, -78.150
 436.5600,-210.000
 436.5700, -74.587
 436.5800, -72.447
 436.5900, -79.055
 436.6000,-210.000
 436.6100, -75.209
 436.6200, -73.247
 436.6300,-210.000
 436.6400, -70.570
 436.6500, -71.158
 436.6600,-210.000
 436.6700,-210.000
 436.6800, -75.127
 436.6900, -72.703
 436.7000, -71.723
 436.7100, -72.168
 436.7200, -81.358
 436.7300, -73.769
 436.7400, -74.275
 436.7500, -76.457
 436.7600, -72.652
 436.7700,-210.000
 436.7800,-210.000
 436.7900, -77.258
 436.8000, -85.089
 436.8100,-210.000
 436.8200, -72.198
 436.8300, -72.866
 436.8400, -72.620
 436.8500, -72.123
 436.8600, -76.816
 436.8700,-210.000
 436.8800, -70.678
 436.8900, -85.097
 436.9000, -73.390
 436.9100,-210.000
 436.9200,-210.000
 436.9300, -70.499
 436.9400, -78.980
 436.9500, -92.306
 436.9600,-210.000
 436.9700, -72.447
 436.9800, -72.279
 436.9900,-210.000
 437.0000, -77.356
 437.0100,-210.000
 437.0200,-210.000
 437.0300, -76.374
 437.0400, -77.313
 437.0500,-210.000
 437.0600,-210.000
 437.0700, -75.731
 437.0800, -70.532
 437.0900,-210.000
 437.1000, -96.883
 437.1100, -72.693
 437.1200,-210.000
 437.1300, -77.306
 437.1400,-210.000
 437.1500, -82.155
 437.1600,-210.000
 437.1700, -74.630
 437.1800,-210.000
 437.1900, -74.052
 437.2000,-210.000
 437.2100, -76.275
 437.2200, -75.036
 437.2300,-210.000
 437.2400, -75.078
 437.2500, -68.763
 437.2600, -71.537
 437.2700,-210.000
 437.2800, -77.669
 437.2900, -73.549
 437.3000, -73.415
 437.3100,-210.000
 437.3200, -74.920
 437.3300, -77.169
 437.3400, -75.127
 437.3500, -74.211
 437.3600, -83.383
 437.3700, -70.400
 437.3800, -78.154
 437.3900,-210.000
 437.4000, -75.104
 437.4100,-210.000
 437.4200,-210.000
 437.4300, -71.534
 437.4400,-210.000
 437.4500, -77.916
 437.4600, -71.030
 437.4700, -73.526
 437.4800, -70.982
 437.4900, -73.209
 437.5000,-210.000
 437.5100, -79.842
 437.5200, -77.260
 437.5300, -77.879
 437.5400,-210.000
 437.5500, -75.362
 437.5600, -75.476
 437.5700, -73.976
 437.5800, -74.153
 437.5900,-210.000
 437.6000, -70.210
 437.6100, -93.135
 437.6200,-210.000
 437.6300, -74.857
 437.6400,-210.000
 437.6500,-210.000
 437.6600, -70.880
 437.6700, -77.332
 437.6800, -80.663
 437.6900, -68.286
 437.7000,-210.000
 437.7100,-210.000
 437.7200,-210.000
 437.7300,-210.000
 437.7400,-210.000
 437.7500, -82.633
 437.7600, -73.392
 437.7700, -75.351
 437.7800, -74.996
 437.7900, -79.517
 437.8000,-210.000
 437.8100, -78.206
 437.8200, -71.545
 437.8300,-210.000
 437.8400,-210.000
 437.8500, -72.881
 437.8600, -77.219
 437.8700, -84.299
 437.8800,-210.000
 437.8900, -73.134
 437.9000, -80.739
 437.9100,-210.000
 437.9200, -70.826
 437.9300,-210.000
 437.9400, -74.453
 437.9500, -74.239
 437.9600, -75.088
 437.9700, -72.291
 437.9800,-210.000
 437.9900, -70.858
 438.0000, -71.668
 438.0100,-210.000
 438.0200, -74.851
 438.0300,-210.000
 438.0400, -73.013
 438.0500, -70.843
 438.0600, -71.014
 438.0700,-210.000
 438.0800, -79.061
 438.0900, -72.026
 438.1000, -74.098
 438.1100,-210.000
 438.1200, -75.832
 438.1300, -76.674
 438.1400,-210.000
 438.1500,-210.000
 438.1600,-210.000
 438.1700, -75.660
 438.1800, -74.992
 438.1900, -71.887
 438.2000,-210.000
 438.2100, -77.993
 438.2200,-210.000
 438.2300, -74.011
 438.2400, -72.794
 438.2500, -70.326
 438.2600,-210.000
 438.2700,-210.000
 438.2800, -70.297
 438.2900, -79.251
 438.3000,-210.000
 438.3100, -95.588
 438.3200,-210.000
 438.3300, -73.500
 438.3400, -75.987
 438.3500,-210.000
 438.3600, -75.715
 438.3700, -81.509
 438.3800, -89.545
 438.3900, -87.044
 438.4000, -70.720
 438.4100, -73.991
 438.4200, -74.961
 438.4300, -76.018
 438.4400,-210.000
 438.4500,-210.000
 438.4600, -80.654
 438.4700,-210.000
 438.4800, -72.708
 438.4900,-210.000
 438.5000,-210.000
 438.5100,-210.000
 438.5200,-210.000
 438.5300, -81.639
 438.5400, -70.170
 438.5500, -81.407
 438.5600,-210.000
 438.5700,-210.000
 438.5800, -80.405
 438.5900,-210.000
 438.6000, -79.619
 438.6100, -77.200
 438.6200,-210.000
 438.6300, -77.757
 438.6400, -77.301
 438.6500, -71.629
 438.6600,-210.000
 438.6700, -80.285
 438.6800,-210.000
 438.6900, -83.380
 438.7000, -78.215
 438.7100, -96.265
 438.7200, -75.201
 438.7300,-210.000
 438.7400,-210.000
 438.7500,-210.000
 438.7600,-210.000
 438.7700, -77.091
 438.7800, -77.531
 438.7900, -81.366
 438.8000, -71.559
 438.8100, -73.806
 438.8200, -71.616
 438.8300, -71.400
 438.8400,-210.000
 438.8500, -73.933
 438.8600,-210.000
 438.8700, -71.375
 438.8800, -71.150
 438.8900,-210.000
 438.9000, -72.488
 438.9100, -91.454
 438.9200, -75.357
 438.9300, -74.962
 438.9400, -72.896
 438.9500,-210.000
 438.9600, -74.825
 438.9700, -81.767
 438.9800, -74.346
 438.9900,-210.000
 439.0000, -77.345
 439.0100, -71.753
 439.0200,-210.000
 439.0300, -69.359
 439.0400, -73.505
 439.0500, -75.476
 439.0600,-210.000
 439.0700, -77.826
 439.0800, -69.246
 439.0900, -83.538
 439.1000,-210.000
 439.1100, -72.437
 439.1200, -76.514
 439.1300, -74.157
 439.1400, -70.632
 439.1500, -74.199
 439.1600, -70.880
 439.1700, -77.627
 439.1800,-210.000
 439.1900, -74.987
 439.2000, -72.471
 439.2100,-210.000
 439.2200,-210.000
 439.2300,-210.000
 439.2400, -72.556
 439.2500, -80.432
 439.2600, -71.497
 439.2700, -85.035
 439.2800, -71.497
 439.2900, -79.316
 439.3000, -74.691
 439.3100, -75.634
 439.3200, -89.104
 439.3300,-210.000
 439.3400, -73.025
 439.3500, -74.467
 439.3600, -76.643
 439.3700, -76.022
 439.3800,-210.000
 439.3900,-210.000
 439.4000, -79.488
 439.4100, -74.115
 439.4200,-210.000
 439.4300, -71.178
 439.4400, -78.358
 439.4500,-210.000
 439.4600,-210.000
 439.4700,-210.000
 439.4800, -72.329
 439.4900, -76.698
 439.5000, -72.404
 439.5100,-210.000
 439.5200, -71.030
 439.5300, -74.443
 439.5400, -71.563
 439.5500, -75.808
 439.5600, -77.083
 439.5700,-210.000
 439.5800, -77.492
 439.5900,-210.000
 439.6000, -72.620
 439.6100, -83.959
 439.6200, -71.113
 439.6300, -76.432
 439.6400, -82.523
 439.6500, -78.949
 439.6600, -74.312
 439.6700, -77.985
 439.6800, -83.616
 439.6900, -79.011
 439.7000,-210.000
 439.7100,-210.000
 439.7200, -79.055
 439.7300, -81.847
 439.7400, -79.866
 439.7500, -76.345
 439.7600, -76.556
 439.7700, -68.286
 439.7800, -70.168
 439.7900,-210.000
 439.8000,-210.000
 439.8100,-210.000
 439.8200, -81.426
 439.8300, -75.882
 439.8400, -72.546
 439.8500,-210.000
 439.8600, -71.893
 439.8700,-210.000
 439.8800,-210.000
 439.8900, -73.389
 439.9000, -78.892
 439.9100, -76.711
 439.9200, -78.225
 439.9300, -71.060
 439.9400, -73.108
 439.9500, -74.419
 439.9600,-210.000
 439.9700, -72.671
 439.9800, -80.689
 439.9900,-210.000
 440.0000, -77.663
 440.0100,-210.000
 440.0200,-210.000
 440.0300, -75.649
 440.0400, -69.134
 440.0500, -76.058
 440.0600,-210.000
 440.0700,-210.000
 440.0800, -72.702
 440.0900, -76.192
 440.1000, -73.828
 440.1100,-210.000
 440.1200,-210.000
 440.1300, -73.876
 440.1400,-210.000
 440.1500, -71.225
 440.1600, -71.592
 440.1700, -72.330
 440.1800,-210.000
 440.1900,-210.000
 440.2000, -73.092
 440.2100,-210.000
 440.2200, -73.218
 440.2300,-210.000
 440.2400,-210.000
 440.2500, -72.226
 440.2600, -71.523
 440.2700, -72.145
 440.2800, -79.667
 440.2900,-210.000
 440.3000,-210.000
 440.3100, -74.375
 440.3200, -74.374
 440.3300,-210.000
 440.3400, -72.765
 440.3500,-210.000
 440.3600, -71.425
 440.3700, -72.428
 440.3800, -76.810
 440.3900,-210.000
 440.4000, -73.540
 440.4100, -82.519
 440.4200, -77.485
 440.4300, -73.010
 440.4400, -70.192
 440.4500, -70.441
 440.4600, -80.094
 440.4700,-210.000
 440.4800,-210.000
 440.4900, -75.547
 440.5000, -80.923
 440.5100, -78.574
 440.5200, -71.124
 440.5300, -72.992
 440.5400,-210.000
 440.5500, -73.633
 440.5600, -71.293
 440.5700, -80.051
 440.5800,-210.000
 440.5900, -73.148
 440.6000, -81.269
 440.6100, -74.857
 440.6200,-210.000
 440.6300, -78.661
 440.6400, -71.132
 440.6500, -74.558
 440.6600, -70.263
 440.6700, -84.311
 440.6800, -75.216
 440.6900, -77.032
 440.7000, -71.432
 440.7100, -72.144
 440.7200,-210.000
 440.7300,-210.000
 440.7400, -72.847
 440.7500, -73.090
 440.7600, -77.220
 440.7700, -72.182
 440.7800, -70.284
 440.7900, -71.479
 440.8000, -79.310
 440.8100,-210.000
 440.8200, -74.799
 440.8300, -72.372
 440.8400,-210.000
 440.8500, -71.748
 440.8600, -76.403
 440.8700, -71.308
 440.8800,-210.000
 440.8900, -74.096
 440.9000, -77.044
 440.9100, -77.917
 440.9200, -69.439
 440.9300, -73.340
 440.9400,-210.000
 440.9500,-210.000
 440.9600,-210.000
 440.9700,-210.000
 440.9800,-210.000
 440.9900, -74.778
 441.0000, -75.379
 441.0100, -78.249
 441.0200, -84.404
 441.0300,-210.000
 441.0400,-210.000
 441.0500, -76.510
 441.0600, -75.976
 441.0700, -79.028
 441.0800, -72.254
 441.0900, -73.515
 441.1000, -84.795
 441.1100, -72.840
 441.1200, -83.252
 441.1300, -79.840
 441.1400, -77.038
 441.1500, -74.587
 441.1600, -70.908
 441.1700, -75.626
 441.1800, -77.287
 441.1900, -74.378
 441.2000,-210.000
 441.2100, -82.430
 441.2200,-210.000
 441.2300, -76.297
 441.2400, -72.548
 441.2500, -72.057
 441.2600, -78.538
 441.2700,-210.000
 441.2800, -81.563
 441.2900, -77.140
 441.3000, -73.989
 441.3100, -74.466
 441.3200,-210.000
 441.3300, -76.311
 441.3400,-210.000
 441.3500, -86.510
 441.3600, -74.521
 441.3700, -77.424
 441.3800,-210.000
 441.3900, -71.730
 441.4000, -69.523
 441.4100, -74.100
 441.4200, -76.403
 441.4300, -81.296
 441.4400, -81.928
 441.4500,-210.000
 441.4600, -75.083
 441.4700, -82.160
 441.4800, -85.103
 441.4900, -72.240
 441.5000, -88.136
 441.5100,-210.000
 441.5200, -80.330
 441.5300, -72.406
 441.5400, -71.807
 441.5500,-210.000
 441.5600, -72.788
 441.5700,-210.000
 441.5800,-210.000
 441.5900, -86.072
 441.6000, -73.550
 441.6100, -73.025
 441.6200, -71.129
 441.6300, -79.849
 441.6400, -74.921
 441.6500, -79.550
 441.6600,-210.000
 441.6700, -80.643
 441.6800, -75.948
 441.6900,-210.000
 441.7000, -69.724
 441.7100, -77.979
 441.7200,-210.000
 441.7300,-210.000
 441.7400,-210.000
 441.7500,-210.000
 441.7600, -79.957
 441.7700, -72.986
 441.7800,-210.000
 441.7900,-210.000
 441.8000, -71.706
 441.8100, -78.428
 441.8200,-210.000
 441.8300,-210.000
 441.8400,-210.000
 441.8500, -70.198
 441.8600, -72.993
 441.8700, -76.829
 441.8800, -76.177
 441.8900, -72.963
 441.9000, -71.880
 441.9100, -75.236
 441.9200, -79.233
 441.9300, -72.823
 441.9400, -72.238
 441.9500, -74.557
 441.9600,-210.000
 441.9700, -76.387
 441.9800, -71.081
 441.9900,-210.000
 442.0000, -75.404
 442.0100, -77.605
 442.0200, -89.586
 442.0300, -72.342
 442.0400, -82.643
 442.0500, -74.462
 442.0600,-210.000
 442.0700, -76.872
 442.0800, -69.061
 442.0900, -72.182
 442.1000, -72.102
 442.1100, -77.884
 442.1200, -71.345
 442.1300,-210.000
 442.1400,-210.000
 442.1500, -77.775
 442.1600,-210.000
 442.1700,-210.000
 442.1800, -74.900
 442.1900, -71.693
 442.2000, -72.455
 442.2100, -82.217
 442.2200, -72.936
 442.2300,-210.000
 442.2400, -71.419
 442.2500, -75.553
 442.2600, -77.890
 442.2700, -72.814
 442.2800, -70.447
 442.2900, -82.882
 442.3000, -71.621
 442.3100, -74.228
 442.3200, -72.792
 442.3300,-210.000
 442.3400, -74.610
 442.3500,-210.000
 442.3600, -77.586
 442.3700,-210.000
 442.3800, -76.098
 442.3900,-210.000
 442.4000, -72.322
 442.4100, -76.969
 442.4200,-210.000
 442.4300, -73.854
 442.4400, -74.432
 442.4500,-210.000
 442.4600,-210.000
 442.4700, -75.422
 442.4800, -77.988
 442.4900, -75.353
 442.5000, -75.784
 442.5100,-210.000
 442.5200,-210.000
 442.5300, -74.614
 442.5400, -76.573
 442.5500, -74.566
 442.5600,-210.000
 442.5700, -72.386
 442.5800, -70.153
 442.5900, -74.443
 442.6000, -84.804
 442.6100, -71.993
 442.6200, -85.736
 442.6300, -72.496
 442.6400,-210.000
 442.6500,-210.000
 442.6600,-210.000
 442.6700,-210.000
 442.6800,-210.000
 442.6900, -76.382
 442.7000, -72.512
 442.7100,-210.000
 442.7200, -73.917
 442.7300,-210.000
 442.7400, -74.224
 442.7500, -77.545
 442.7600, -75.409
 442.7700, -76.193
 442.7800,-210.000
 442.7900, -71.452
 442.8000, -73.597
 442.8100, -76.419
 442.8200, -73.522
 442.8300,-210.000
 442.8400, -77.560
 442.8500, -68.544
 442.8600, -83.950
 442.8700, -75.060
 442.8800,-210.000
 442.8900, -70.420
 442.9000, -75.455
 442.9100, -73.613
 442.9200, -84.305
 442.9300,-210.000
 442.9400, -72.157
 442.9500,-210.000
 442.9600, -70.661
 442.9700, -75.225
 442.9800, -75.289
 442.9900, -72.299
 443.0000, -73.864
 443.0100, -77.266
 443.0200,-210.000
 443.0300, -76.177
 443.0400,-210.000
 443.0500, -72.723
 443.0600, -70.711
 443.0700, -74.279
 443.0800, -71.616
 443.0900, -78.720
 443.1000, -70.586
 443.1100,-210.000
 443.1200, -74.692
 443.1300, -72.515
 443.1400, -75.194
 443.1500,-210.000
 443.1600, -79.408
 443.1700,-210.000
 443.1800,-210.000
 443.1900,-210.000
 443.2000, -74.857
 443.2100, -73.388
 443.2200,-210.000
 443.2300, -70.576
 443.2400, -70.367
 443.2500,-210.000
 443.2600, -78.416
 443.2700, -76.997
 443.2800,-210.000
 443.2900, -77.540
 443.3000, -72.242
 443.3100, -71.408
 443.3200, -88.070
 443.3300,-210.000
 443.3400,-210.000
 443.3500, -75.172
 443.3600, -76.176
 443.3700, -82.082
 443.3800,-210.000
 443.3900,-210.000
 443.4000, -71.913
 443.4100, -71.101
 443.4200, -78.984
 443.4300,-210.000
 443.4400,-210.000
 443.4500, -71.758
 443.4600, -87.648
 443.4700,-210.000
 443.4800,-210.000
 443.4900, -73.986
 443.5000, -75.083
 443.5100, -71.109
 443.5200,-210.000
 443.5300, -72.873
 443.5400, -77.865
 443.5500,-210.000
 443.5600, -77.878
 443.5700, -71.403
 443.5800,-210.000
 443.5900,-210.000
 443.6000, -71.118
 443.6100,-210.000
 443.6200, -85.136
 443.6300, -73.424
 443.6400, -75.557
 443.6500, -73.887
 443.6600,-210.000
 443.6700, -76.318
 443.6800, -71.775
 443.6900, -73.763
 443.7000, -76.781
 443.7100,-210.000
 443.7200, -72.047
 443.7300, -80.294
 443.7400, -78.143
 443.7500,-210.000
 443.7600,-210.000
 443.7700,-210.000
 443.7800, -86.940
 443.7900, -70.501
 443.8000,-210.000
 443.8100, -69.800
 443.8200, -74.262
 443.8300, -78.349
 443.8400, -72.583
 443.8500,-210.000
 443.8600,-210.000
 443.8700, -72.188
 443.8800,-210.000
 443.8900, -70.588
 443.9000, -74.387
 443.9100, -75.379
 443.9200,-210.000
 443.9300, -78.083
 443.9400, -74.578
 443.9500, -70.905
 443.9600,-210.000
 443.9700,-210.000
 443.9800,-210.000
 443.9900,-210.000
 444.0000,-210.000
 444.0100, -70.444
 444.0200, -78.537
 444.0300, -74.626
 444.0400, -71.211
 444.0500, -72.866
 444.0600,-210.000
 444.0700, -73.398
 444.0800, -70.007
 444.0900, -72.090
 444.1000,-210.000
 444.1100,-210.000
 444.1200, -73.395
 444.1300, -72.503
 444.1400, -77.980
 444.1500, -77.305
 444.1600, -72.234
 444.1700, -84.422
 444.1800,-210.000
 444.1900, -71.211
 444.2000, -72.205
 444.2100, -70.968
 444.2200, -73.320
 444.2300, -71.848
 444.2400, -78.657
 444.2500,-210.000
 444.2600, -89.363
 444.2700,-210.000
 444.2800, -73.017
 444.2900, -74.759
 444.3000,-210.000
 444.3100, -73.395
 444.3200,-210.000
 444.3300, -73.626
 444.3400,-210.000
 444.3500, -75.917
 444.3600,-210.000
 444.3700,-210.000
 444.3800, -77.191
 444.3900, -71.499
 444.4000, -72.467
 444.4100, -70.709
 444.4200,-210.000
 444.4300, -75.826
 444.4400,-210.000
 444.4500, -75.611
 444.4600, -79.733
 444.4700, -73.857
 444.4800, -73.719
 444.4900, -74.663
 444.5000, -69.716
 444.5100, -80.139
 444.5200,-210.000
 444.5300,-210.000
 444.5400, -83.470
 444.5500,-210.000
 444.5600, -74.836
 444.5700, -72.219
 444.5800, -73.293
 444.5900, -72.926
 444.6000, -75.230
 444.6100, -71.028
 444.6200, -76.091
 444.6300, -77.012
 444.6400, -76.776
 444.6500,-210.000
 444.6600,-210.000
 444.6700, -79.331
 444.6800, -71.707
 444.6900,-210.000
 444.7000,-210.000
 444.7100,-210.000
 444.7200,-210.000
 444.7300, -72.625
 444.7400, -80.748
 444.7500, -74.434
 444.7600,-210.000
 444.7700,-210.000
 444.7800, -78.305
 444.7900, -70.081
 444.8000, -74.861
 444.8100,-210.000
 444.8200, -79.655
 444.8300, -71.661
 444.8400, -76.679
 444.8500, -78.330
 444.8600, -76.108
 444.8700,-210.000
 444.8800,-210.000
 444.8900,-210.000
 444.9000,-210.000
 444.9100, -72.010
 444.9200,-210.000
 444.9300,-210.000
 444.9400,-210.000
 444.9500, -73.073
 444.9600, -73.754
 444.9700,-210.000
 444.9800, -73.109
 444.9900, -76.517
 445.0000, -70.714
 445.0100, -77.218
 445.0200, -80.046
 445.0300, -77.008
 445.0400, -82.216
 445.0500, -72.105
 445.0600, -83.434
 445.0700, -71.548
 445.0800, -74.348
 445.0900, -73.127
 445.1000,-210.000
 445.1100, -71.333
 445.1200, -75.972
 445.1300, -75.369
 445.1400,-210.000
 445.1500, -71.192
 445.1600, -74.611
 445.1700,-210.000
 445.1800, -76.394
 445.1900, -78.379
 445.2000,-210.000
 445.2100,-210.000
 445.2200,-210.000
 445.2300,-210.000
 445.2400, -75.819
 445.2500, -81.751
 445.2600, -76.132
 445.2700,-210.000
 445.2800,-210.000
 445.2900, -76.372
 445.3000, -71.300
 445.3100, -76.417
 445.3200,-210.000
 445.3300,-210.000
 445.3400, -71.783
 445.3500,-210.000
 445.3600,-210.000
 445.3700, -72.054
 445.3800, -75.390
 445.3900, -71.758
 445.4000, -82.374
 445.4100,-210.000
 445.4200, -71.284
 445.4300, -74.132
 445.4400, -71.027
 445.4500, -82.011
 445.4600,-210.000
 445.4700, -70.965
 445.4800, -74.609
 445.4900, -71.367
 445.5000, -82.548
 445.5100,-210.000
 445.5200, -77.304
 445.5300, -80.988
 445.5400, -71.272
 445.5500,-210.000
 445.5600, -76.260
 445.5700, -77.700
 445.5800, -75.489
 445.5900, -77.396
 445.6000,-210.000
 445.6100,-210.000
 445.6200, -79.567
 445.6300, -73.883
 445.6400,-210.000
 445.6500, -81.468
 445.6600, -79.296
 445.6700,-210.000
 445.6800, -72.613
 445.6900, -80.583
 445.7000, -78.000
 445.7100,-210.000
 445.7200,-210.000
 445.7300, -76.662
 445.7400, -70.488
 445.7500, -79.172
 445.7600, -71.537
 445.7700,-210.000
 445.7800,-210.000
 445.7900, -80.854
 445.8000, -71.617
 445.8100,-210.000
 445.8200,-210.000
 445.8300, -75.898
 445.8400,-210.000
 445.8500, -71.689
 445.8600, -74.457
 445.8700,-210.000
 445.8800,-210.000
 445.8900, -71.492
 445.9000, -71.071
 445.9100, -74.429
 445.9200,-210.000
 445.9300, -75.164
 445.9400, -71.896
 445.9500, -72.955
 445.9600, -76.998
 445.9700, -74.040
 445.9800, -70.914
 445.9900, -85.676
 446.0000, -79.610
 446.0100,-210.000
 446.0200, -82.288
 446.0300, -72.252
 446.0400, -77.932
 446.0500, -81.185
 446.0600, -71.745
 446.0700, -71.091
 446.0800, -73.210
 446.0900, -78.264
 446.1000,-210.000
 446.1100, -82.370
 446.1200, -72.821
 446.1300,-210.000
 446.1400, -90.819
 446.1500, -73.249
 446.1600, -75.896
 446.1700, -77.040
 446.1800,-210.000
 446.1900,-210.000
 446.2000, -76.920
 446.2100, -75.436
 446.2200, -74.517
 446.2300, -78.185
 446.2400, -72.647
 446.2500,-210.000
 446.2600, -73.381
 446.2700,-210.000
 446.2800,-210.000
 446.2900, -73.235
 446.3000, -73.626
 446.3100, -74.991
 446.3200, -72.113
 446.3300,-210.000
 446.3400, -70.798
 446.3500, -71.455
 446.3600, -80.838
 446.3700, -75.542
 446.3800, -77.509
 446.3900, -86.560
 446.4000, -69.334
 446.4100, -87.302
 446.4200, -70.438
 446.4300, -71.848
 446.4400, -74.574
 446.4500, -77.331
 446.4600, -74.717
 446.4700, -81.036
 446.4800, -74.524
 446.4900, -72.065
 446.5000, -71.326
 446.5100, -79.165
 446.5200,-210.000
 446.5300,-210.000
 446.5400, -77.566
 446.5500, -71.113
 446.5600, -72.649
 446.5700, -82.575
 446.5800,-210.000
 446.5900, -84.633
 446.6000, -70.235
 446.6100, -75.520
 446.6200, -80.167
 446.6300, -75.179
 446.6400, -76.377
 446.6500, -72.906
 446.6600,-210.000
 446.6700, -72.686
 446.6800, -70.676
 446.6900, -74.208
 446.7000, -72.923
 446.7100, -69.476
 446.7200, -71.805
 446.7300, -74.098
 446.7400, -72.491
 446.7500, -86.536
 446.7600, -77.943
 446.7700,-210.000
 446.7800, -86.640
 446.7900,-210.000
 446.8000,-210.000
 446.8100, -71.238
 446.8200, -70.693
 446.8300, -76.219
 446.8400, -73.344
 446.8500, -73.608
 446.8600, -78.785
 446.8700,-210.000
 446.8800, -71.224
 446.8900, -78.984
 446.9000, -83.796
 446.9100, -80.136
 446.9200, -76.646
 446.9300, -71.249
 446.9400, -82.256
 446.9500, -77.572
 446.9600, -83.455
 446.9700,-210.000
 446.9800, -69.328
 446.9900, -75.575
 447.0000,-210.000
 447.0100, -71.093
 447.0200, -70.896
 447.0300, -79.917
 447.0400, -84.254
 447.0500, -75.181
 447.0600, -74.276
 447.0700, -72.832
 447.0800, -70.827
 447.0900,-210.000
 447.1000, -75.415
 447.1100, -72.320
 447.1200,-210.000
 447.1300,-210.000
 447.1400,-210.000
 447.1500, -81.889
 447.1600, -73.002
 447.1700, -73.979
 447.1800,-210.000
 447.1900, -77.589
 447.2000, -71.292
 447.2100, -73.536
 447.2200, -73.786
 447.2300, -72.570
 447.2400, -79.389
 447.2500, -71.625
 447.2600, -72.027
 447.2700, -78.267
 447.2800, -74.464
 447.2900,-210.000
 447.3000, -73.608
 447.3100, -72.551
 447.3200,-210.000
 447.3300,-210.000
 447.3400, -72.171
 447.3500, -86.063
 447.3600,-210.000
 447.3700,-210.000
 447.3800, -71.502
 447.3900, -72.776
 447.4000,-210.000
 447.4100, -72.970
 447.4200, -74.988
 447.4300, -74.766
 447.4400, -72.209
 447.4500, -74.880
 447.4600, -80.589
 447.4700,-210.000
 447.4800, -78.089
 447.4900, -75.486
 447.5000, -79.729
 447.5100, -68.964
 447.5200,-210.000
 447.5300,-210.000
 447.5400, -72.983
 447.5500, -78.721
 447.5600, -72.696
 447.5700, -76.607
 447.5800, -71.619
 447.5900, -74.499
 447.6000, -77.312
 447.6100, -78.426
 447.6200,-210.000
 447.6300, -71.091
 447.6400, -69.960
 447.6500, -72.154
 447.6600, -78.308
 447.6700, -74.990
 447.6800, -88.485
 447.6900,-210.000
 447.7000, -72.172
 447.7100, -71.067
 447.7200, -73.170
 447.7300,-210.000
 447.7400, -71.960
 447.7500, -72.609
 447.7600, -75.960
 447.7700, -72.020
 447.7800,-210.000
 447.7900, -73.259
 447.8000, -81.422
 447.8100,-210.000
 447.8200, -70.212
 447.8300, -71.085
 447.8400,-210.000
 447.8500, -80.195
 447.8600, -75.613
 447.8700,-210.000
 447.8800, -74.248
 447.8900,-210.000
 447.9000, -74.675
 447.9100, -84.780
 447.9200,-210.000
 447.9300,-210.000
 447.9400, -74.328
 447.9500, -73.005
 447.9600, -75.231
 447.9700, -73.343
 447.9800, -72.313
 447.9900, -79.282
 448.0000,-210.000
 448.0100,-210.000
 448.0200,-210.000
 448.0300,-210.000
 448.0400, -72.946
 448.0500, -74.443
 448.0600, -73.632
 448.0700,-210.000
 448.0800, -71.438
 448.0900,-210.000
 448.1000, -73.883
 448.1100, -76.438
 448.1200, -71.380
 448.1300,-210.000
 448.1400,-210.000
 448.1500, -71.715
 448.1600,-210.000
 448.1700,-210.000
 448.1800, -73.793
 448.1900, -76.079
 448.2000,-210.000
 448.2100,-210.000
 448.2200,-210.000
 448.2300, -78.727
 448.2400,-210.000
 448.2500, -71.330
 448.2600, -71.280
 448.2700, -78.483
 448.2800, -75.861
 448.2900,-210.000
 448.3000, -69.771
 448.3100, -71.409
 448.3200, -72.249
 448.3300, -78.019
 448.3400, -72.805
 448.3500, -75.470
 448.3600, -78.155
 448.3700, -84.410
 448.3800, -71.367
 448.3900,-210.000
 448.4000,-210.000
 448.4100,-210.000
 448.4200, -72.186
 448.4300,-210.000
 448.4400, -70.678
 448.4500, -72.614
 448.4600, -77.984
 448.4700, -76.310
 448.4800, -75.463
 448.4900, -73.175
 448.5000,-210.000
 448.5100, -77.657
 448.5200,-210.000
 448.5300, -79.771
 448.5400, -84.877
 448.5500, -72.920
 448.5600,-210.000
 448.5700, -78.198
 448.5800, -71.988
 448.5900, -88.242
 448.6000, -74.397
 448.6100, -76.106
 448.6200, -72.619
 448.6300,-210.000
 448.6400, -72.545
 448.6500,-105.297
 448.6600, -77.821
 448.6700, -73.477
 448.6800, -75.645
 448.6900,-210.000
 448.7000,-210.000
 448.7100, -70.564
 448.7200, -75.006
 448.7300,-210.000
 448.7400,-210.000
 448.7500,-210.000
 448.7600, -70.500
 448.7700, -72.920
 448.7800,-210.000
 448.7900, -72.362
 448.8000, -71.783
 448.8100, -72.978
 448.8200, -75.327
 448.8300, -75.387
 448.8400, -74.757
 448.8500, -72.006
 448.8600, -75.504
 448.8700, -73.512
 448.8800, -71.543
 448.8900,-210.000
 448.9000, -71.251
 448.9100, -77.248
 448.9200,-210.000
 448.9300, -75.704
 448.9400,-210.000
 448.9500, -71.510
 448.9600, -74.857
 448.9700,-210.000
 448.9800,-210.000
 448.9900, -73.635
 449.0000, -74.157
 449.0100, -70.027
 449.0200, -80.392
 449.0300, -72.433
 449.0400, -76.553
 449.0500, -72.878
 449.0600,-210.000
 449.0700, -71.993
 449.0800,-210.000
 449.0900, -73.291
 449.1000, -70.573
 449.1100,-210.000
 449.1200, -70.102
 449.1300, -73.196
 449.1400, -67.592
 449.1500, -69.932
 449.1600, -74.533
 449.1700, -68.644
 449.1800, -68.480
 449.1900, -67.459
 449.2000, -67.050
 449.2100, -66.481
 449.2200, -65.847
 449.2300, -67.439
 449.2400, -67.474
 449.2500, -65.017
 449.2600, -63.182
 449.2700, -61.488
 449.2800, -60.103
 449.2900, -57.521
 449.3000, -57.385
 449.3100, -56.893
 449.3200, -56.609
 449.3300, -56.238
 449.3400, -56.336
 449.3500, -55.615
 449.3600, -56.463
 449.3700, -58.337
 449.3800, -58.795
 449.3900, -59.696
 449.4000, -58.653
 449.4100, -58.319
 449.4200, -57.503
 449.4300, -56.076
 449.4400, -55.597
 449.4500, -54.538
 449.4600, -53.588
 449.4700, -53.342
 449.4800, -53.395
 449.4900, -53.201
 449.5000, -53.191
 449.5100, -53.254
 449.5200, -53.080
 449.5300, -53.516
 449.5400, -53.341
 449.5500, -53.217
 449.5600, -52.764
 449.5700, -52.386
 449.5800, -52.045
 449.5900, -51.327
 449.6000, -50.881
 449.6100, -50.549
 449.6200, -49.777
 449.6300, -49.515
 449.6400, -49.682
 449.6500, -49.818
 449.6600, -49.982
 449.6700, -50.051
 449.6800, -50.090
 449.6900, -50.522
 449.7000, -50.640
 449.7100, -50.143
 449.7200, -49.842
 449.7300, -49.979
 449.7400, -49.715
 449.7500, -48.951
 449.7600, -48.503
 449.7700, -48.342
 449.7800, -48.226
 449.7900, -48.318
 449.8000, -48.315
 449.8100, -48.418
 449.8200, -48.333
 449.8300, -48.657
 449.8400, -48.710
 449.8500, -48.824
 449.8600, -48.859
 449.8700, -48.735
 449.8800, -48.671
 449.8900, -48.394
 449.9000, -48.268
 449.9100, -48.053
 449.9200, -47.827
 449.9300, -47.765
 449.9400, -47.805
 449.9500, -48.026
 449.9600, -48.199
 449.9700, -48.202
 449.9800, -48.413
 449.9900, -48.578
 450.0000, -48.605
 450.0100, -48.248
 450.0200, -48.339
 450.0300, -48.451
 450.0400, -48.147
 450.0500, -47.916
 450.0600, -47.602
 450.0700, -47.388
 450.0800, -47.053
 450.0900, -46.794
 450.1000, -46.589
 450.1100, -46.491
 450.1200, -46.389
 450.1300, -46.268
 450.1400, -45.979
 450.1500, -46.013
 450.1600, -45.987
 450.1700, -46.169
 450.1800, -46.445
 450.1900, -45.996
 450.2000, -46.006
 450.2100, -46.052
 450.2200, -46.012
 450.2300, -46.051
 450.2400, -46.047
 450.2500, -46.107
 450.2600, -46.089
 450.2700, -46.079
 450.2800, -46.218
 450.2900, -46.325
 450.3000, -46.360
 450.3100, -46.506
 450.3200, -46.739
 450.3300, -46.961
 450.3400, -47.254
 450.3500, -47.541
 450.3600, -47.749
 450.3700, -48.060
 450.3800, -48.408
 450.3900, -48.218
 450.4000, -48.338
 450.4100, -49.574
 450.4200, -50.340
 450.4300, -51.318
 450.4400, -52.136
 450.4500, -52.230
 450.4600, -53.410
 450.4700, -54.475
 450.4800, -54.708
 450.4900, -54.435
 450.5000, -54.588
 450.5100, -54.664
 450.5200, -52.618
 450.5300, -52.240
 450.5400, -52.121
 450.5500, -52.429
 450.5600, -53.570
 450.5700, -53.526
 450.5800, -53.441
 450.5900, -53.943
 450.6000, -54.066
 450.6100, -54.268
 450.6200, -54.274
 450.6300, -53.498
 450.6400, -53.334
 450.6500, -52.630
 450.6600, -52.121
 450.6700, -51.970
 450.6800, -51.671
 450.6900, -51.466
 450.7000, -51.832
 450.7100, -52.042
 450.7200, -51.679
 450.7300, -51.414
 450.7400, -53.011
 450.7500, -53.361
 450.7600, -53.488
 450.7700, -53.481
 450.7800, -53.316
 450.7900, -52.567
 450.8000, -51.724
 450.8100, -50.976
 450.8200, -50.484
 450.8300, -49.950
 450.8400, -49.565
 450.8500, -49.392
 450.8600, -49.287
 450.8700, -49.205
 450.8800, -49.380
 450.8900, -49.436
 450.9000, -49.923
 450.9100, -50.458
 450.9200, -50.905
 450.9300, -51.359
 450.9400, -51.791
 450.9500, -52.318
 450.9600, -52.376
 450.9700, -52.633
 450.9800, -52.803
 450.9900, -53.193
 451.0000, -54.419
 451.0100, -54.584
 451.0200, -55.014
 451.0300, -56.244
 451.0400, -57.612
 451.0500, -58.441
 451.0600, -58.886
 451.0700, -61.645
 451.0800, -64.091
 451.0900, -67.180
 451.1000, -66.748
 451.1100, -68.710
 451.1200, -66.921
 451.1300, -63.692
 451.1400, -62.958
 451.1500, -63.454
 451.1600, -63.382
 451.1700, -63.202
 451.1800, -61.516
 451.1900, -59.351
 451.2000, -58.624
 451.2100, -58.955
 451.2200, -59.417
 451.2300, -58.581
 451.2400, -57.549
 451.2500, -56.914
 451.2600, -57.275
 451.2700, -56.947
 451.2800, -57.109
 451.2900, -56.803
 451.3000, -57.053
 451.3100, -56.907
 451.3200, -56.476
 451.3300, -56.150
 451.3400, -56.285
 451.3500, -56.537
 451.3600, -55.797
 451.3700, -54.918
 451.3800, -54.145
 451.3900, -53.645
 451.4000, -53.046
 451.4100, -52.865
 451.4200, -52.381
 451.4300, -51.925
 451.4400, -51.827
 451.4500, -51.671
 451.4600, -51.621
 451.4700, -51.715
 451.4800, -51.878
 451.4900, -51.825
 451.5000, -51.821
 451.5100, -51.866
 451.5200, -51.658
 451.5300, -51.552
 451.5400, -51.930
 451.5500, -52.439
 451.5600, -52.283
 451.5700, -52.241
 451.5800, -52.381
 451.5900, -52.575
 451.6000, -52.976
 451.6100, -52.857
 451.6200, -53.084
 451.6300, -52.981
 451.6400, -52.847
 451.6500, -52.544
 451.6600, -52.125
 451.6700, -52.224
 451.6800, -52.248
 451.6900, -52.085
 451.7000, -51.983
 451.7100, -51.350
 451.7200, -51.087
 451.7300, -51.388
 451.7400, -51.213
 451.7500, -51.326
 451.7600, -51.191
 451.7700, -50.999
 451.7800, -50.773
 451.7900, -50.527
 451.8000, -50.282
 451.8100, -50.018
 451.8200, -49.994
 451.8300, -49.710
 451.8400, -49.317
 451.8500, -49.101
 451.8600, -48.946
 451.8700, -48.754
 451.8800, -48.591
 451.8900, -48.683
 451.9000, -48.698
 451.9100, -48.754
 451.9200, -48.633
 451.9300, -48.371
 451.9400, -48.328
 451.9500, -48.326
 451.9600, -48.244
 451.9700, -48.107
 451.9800, -47.937
 451.9900, -47.848
 452.0000, -47.689
 452.0100, -47.499
 452.0200, -47.412
 452.0300, -47.371
 452.0400, -47.355
 452.0500, -47.205
 452.0600, -47.145
 452.0700, -47.011
 452.0800, -46.900
 452.0900, -46.812
 452.1000, -46.783
 452.1100, -46.803
 452.1200, -46.828
 452.1300, -46.827
 452.1400, -46.918
 452.1500, -47.085
 452.1600, -47.398
 452.1700, -47.503
 452.1800, -47.637
 452.1900, -47.632
 452.2000, -47.794
 452.2100, -48.028
 452.2200, -48.175
 452.2300, -48.381
 452.2400, -48.729
 452.2500, -49.100
 452.2600, -49.071
 452.2700, -49.644
 452.2800, -50.640
 452.2900, -51.289
 452.3000, -51.982
 452.3100, -52.184
 452.3200, -52.418
 452.3300, -53.527
 452.3400, -54.135
 452.3500, -54.366
 452.3600, -54.346
 452.3700, -54.226
 452.3800, -54.541
 452.3900, -54.582
 452.4000, -54.809
 452.4100, -54.627
 452.4200, -54.511
 452.4300, -54.421
 452.4400, -54.211
 452.4500, -54.119
 452.4600, -54.025
 452.4700, -53.825
 452.4800, -53.528
 452.4900, -53.184
 452.5000, -52.699
 452.5100, -52.405
 452.5200, -52.213
 452.5300, -52.318
 452.5400, -52.182
 452.5500, -51.751
 452.5600, -51.507
 452.5700, -51.442
 452.5800, -51.460
 452.5900, -51.930
 452.6000, -51.760
 452.6100, -51.330
 452.6200, -51.136
 452.6300, -50.870
 452.6400, -51.035
 452.6500, -51.189
 452.6600, -50.392
 452.6700, -50.099
 452.6800, -49.786
 452.6900, -49.611
 452.7000, -50.094
 452.7100, -49.720
 452.7200, -49.400
 452.7300, -49.427
 452.7400, -49.454
 452.7500, -49.512
 452.7600, -49.526
 452.7700, -49.628
 452.7800, -49.774
 452.7900, -49.847
 452.8000, -49.757
 452.8100, -49.585
 452.8200, -49.305
 452.8300, -48.994
 452.8400, -48.771
 452.8500, -48.643
 452.8600, -48.488
 452.8700, -48.283
 452.8800, -48.206
 452.8900, -48.196
 452.9000, -48.337
 452.9100, -48.441
 452.9200, -48.134
 452.9300, -48.437
 452.9400, -48.561
 452.9500, -48.446
 452.9600, -48.212
 452.9700, -48.193
 452.9800, -48.090
 452.9900, -47.666
 453.0000, -47.386
 453.0100, -47.245
 453.0200, -47.549
 453.0300, -48.237
 453.0400, -47.847
 453.0500, -47.558
 453.0600, -47.606
 453.0700, -47.707
 453.0800, -48.031
 453.0900, -48.081
 453.1000, -48.292
 453.1100, -48.397
 453.1200, -48.484
 453.1300, -48.636
 453.1400, -48.645
 453.1500, -48.671
 453.1600, -48.654
 453.1700, -48.543
 453.1800, -48.370
 453.1900, -48.325
 453.2000, -48.253
 453.2100, -48.123
 453.2200, -48.136
 453.2300, -48.259
 453.2400, -48.253
 453.2500, -47.997
 453.2600, -48.483
 453.2700, -48.989
 453.2800, -49.370
 453.2900, -49.745
 453.3000, -49.932
 453.3100, -50.320
 453.3200, -50.909
 453.3300, -51.438
 453.3400, -51.798
 453.3500, -51.992
 453.3600, -51.963
 453.3700, -52.308
 453.3800, -52.643
 453.3900, -52.822
 453.4000, -52.814
 453.4100, -52.985
 453.4200, -52.871
 453.4300, -52.464
 453.4400, -52.382
 453.4500, -52.349
 453.4600, -52.879
 453.4700, -53.286
 453.4800, -53.067
 453.4900, -52.916
 453.5000, -52.936
 453.5100, -53.258
 453.5200, -53.555
 453.5300, -53.621
 453.5400, -54.096
 453.5500, -53.917
 453.5600, -53.846
 453.5700, -53.201
 453.5800, -52.505
 453.5900, -53.411
 453.6000, -53.644
 453.6100, -53.643
 453.6200, -53.371
 453.6300, -52.398
 453.6400, -52.385
 453.6500, -53.166
 453.6600, -52.978
 453.6700, -52.881
 453.6800, -52.976
 453.6900, -53.864
 453.7000, -52.084
 453.7100, -51.887
 453.7200, -52.040
 453.7300, -52.185
 453.7400, -54.745
 453.7500, -54.300
 453.7600, -53.582
 453.7700, -54.691
 453.7800, -55.750
 453.7900, -57.217
 453.8000, -58.211
 453.8100, -57.592
 453.8200, -57.458
 453.8300, -57.987
 453.8400, -58.444
 453.8500, -56.293
 453.8600, -57.398
 453.8700, -58.951
 453.8800, -59.946
 453.8900, -61.232
 453.9000, -59.959
 453.9100, -61.415
 453.9200, -69.803
 453.9300, -70.497
 453.9400, -69.609
 453.9500, -73.192
 453.9600,-210.000
 453.9700,-210.000
 453.9800,-210.000
 453.9900,-210.000
 454.0000, -73.440
 454.0100, -73.483
 454.0200, -73.090
 454.0300, -70.274
 454.0400, -74.167
 454.0500, -74.367
 454.0600, -76.536
 454.0700, -70.389
 454.0800, -73.387
 454.0900, -78.649
 454.1000,-210.000
 454.1100, -73.219
 454.1200, -73.176
 454.1300, -69.809
 454.1400, -70.859
 454.1500, -79.761
 454.1600, -84.701
 454.1700,-210.000
 454.1800, -71.352
 454.1900, -72.779
 454.2000, -72.773
 454.2100, -74.640
 454.2200,-210.000
 454.2300,-210.000
 454.2400, -75.993
 454.2500,-210.000
 454.2600,-210.000
 454.2700, -72.973
 454.2800, -76.803
 454.2900, -81.910
 454.3000, -70.953
 454.3100, -74.282
 454.3200, -74.839
 454.3300, -74.312
 454.3400, -72.959
 454.3500,-210.000
 454.3600, -72.798
 454.3700,-210.000
 454.3800,-210.000
 454.3900, -75.702
 454.4000, -87.184
 454.4100,-210.000
 454.4200, -73.649
 454.4300, -73.462
 454.4400,-210.000
 454.4500, -75.396
 454.4600, -79.551
 454.4700, -73.130
 454.4800,-210.000
 454.4900, -78.084
 454.5000, -81.412
 454.5100, -79.837
 454.5200, -75.187
 454.5300, -76.414
 454.5400, -77.686
 454.5500, -82.506
 454.5600, -82.270
 454.5700, -72.378
 454.5800, -72.594
 454.5900, -76.774
 454.6000, -75.135
 454.6100, -72.934
 454.6200, -70.064
 454.6300,-210.000
 454.6400, -70.110
 454.6500, -77.233
 454.6600,-210.000
 454.6700, -74.433
 454.6800, -78.207
 454.6900, -77.570
 454.7000, -91.155
 454.7100, -72.691
 454.7200, -75.132
 454.7300, -72.628
 454.7400,-210.000
 454.7500, -74.148
 454.7600,-210.000
 454.7700, -73.171
 454.7800, -75.251
 454.7900,-210.000
 454.8000,-210.000
 454.8100,-210.000
 454.8200, -82.152
 454.8300, -72.364
 454.8400, -76.496
 454.8500,-210.000
 454.8600, -73.833
 454.8700,-210.000
 454.8800, -75.331
 454.8900, -83.838
 454.9000, -69.142
 454.9100, -73.312
 454.9200, -84.867
 454.9300, -74.346
 454.9400,-210.000
 454.9500, -69.517
 454.9600, -72.952
 454.9700,-210.000
 454.9800, -69.791
 454.9900, -84.366
 455.0000,-210.000
 455.0100,-210.000
 455.0200,-210.000
 455.0300,-210.000
 455.0400, -69.516
 455.0500, -76.006
 455.0600,-210.000
 455.0700, -81.627
 455.0800,-210.000
 455.0900,-210.000
 455.1000, -75.865
 455.1100, -72.863
 455.1200, -72.822
 455.1300, -97.667
 455.1400, -74.075
 455.1500,-210.000
 455.1600, -74.713
 455.1700, -74.520
 455.1800, -81.946
 455.1900, -72.173
 455.2000, -75.289
 455.2100,-210.000
 455.2200, -71.659
 455.2300, -78.898
 455.2400, -70.279
 455.2500,-210.000
 455.2600, -72.228
 455.2700, -79.664
 455.2800, -89.491
 455.2900,-210.000
 455.3000, -71.332
 455.3100, -88.295
 455.3200, -74.180
 455.3300, -75.631
 455.3400, -89.806
 455.3500, -70.042
 455.3600,-210.000
 455.3700, -73.418
 455.3800,-210.000
 455.3900,-210.000
 455.4000, -68.829
 455.4100, -71.529
 455.4200, -93.823
 455.4300,-210.000
 455.4400, -74.131
 455.4500,-210.000
 455.4600, -70.170
 455.4700,-210.000
 455.4800, -69.361
 455.4900, -70.245
 455.5000,-210.000
 455.5100, -75.159
 455.5200, -73.050
 455.5300, -78.675
 455.5400,-210.000
 455.5500, -74.642
 455.5600, -70.602
 455.5700, -71.718
 455.5800,-210.000
 455.5900,-210.000
 455.6000,-210.000
 455.6100, -73.538
 455.6200, -77.224
 455.6300,-210.000
 455.6400,-210.000
 455.6500,-210.000
 455.6600,-210.000
 455.6700,-210.000
 455.6800,-210.000
 455.6900,-210.000
 455.7000, -80.347
 455.7100, -77.746
 455.7200, -77.023
 455.7300,-210.000
 455.7400, -72.148
 455.7500, -74.513
 455.7600,-210.000
 455.7700, -74.118
 455.7800, -77.182
 455.7900, -80.206
 455.8000, -72.342
 455.8100,-210.000
 455.8200, -77.572
 455.8300,-210.000
 455.8400,-210.000
 455.8500, -74.763
 455.8600,-210.000
 455.8700, -72.520
 455.8800, -71.136
 455.8900,-210.000
 455.9000, -78.370
 455.9100, -73.806
 455.9200,-210.000
 455.9300, -78.945
 455.9400, -84.973
 455.9500,-210.000
 455.9600,-210.000
 455.9700,-210.000
 455.9800, -74.337
 455.9900,-210.000
 456.0000, -80.043
 456.0100, -73.791
 456.0200,-210.000
 456.0300, -73.931
 456.0400,-210.000
 456.0500, -79.630
 456.0600, -72.015
 456.0700,-210.000
 456.0800, -72.020
 456.0900,-210.000
 456.1000,-210.000
 456.1100, -74.020
 456.1200,-210.000
 456.1300, -74.917
 456.1400, -73.557
 456.1500, -74.554
 456.1600, -76.078
 456.1700, -72.954
 456.1800, -81.722
 456.1900,-210.000
 456.2000, -77.358
 456.2100,-210.000
 456.2200, -75.742
 456.2300, -74.337
 456.2400, -72.752
 456.2500, -75.294
 456.2600,-210.000
 456.2700,-210.000
 456.2800,-210.000
 456.2900,-210.000
 456.3000,-210.000
 456.3100,-210.000
 456.3200, -80.245
 456.3300,-210.000
 456.3400, -76.937
 456.3500, -71.100
 456.3600, -85.422
 456.3700, -74.745
 456.3800, -74.964
 456.3900, -71.963
 456.4000,-210.000
 456.4100, -77.632
 456.4200,-210.000
 456.4300, -79.236
 456.4400, -76.742
 456.4500, -83.839
 456.4600,-210.000
 456.4700, -71.531
 456.4800, -76.045
 456.4900, -73.612
 456.5000, -72.535
 456.5100, -74.566
 456.5200, -76.269
 456.5300, -77.988
 456.5400,-210.000
 456.5500, -74.817
 456.5600,-210.000
 456.5700, -74.017
 456.5800, -81.232
 456.5900, -73.635
 456.6000, -75.010
 456.6100,-210.000
 456.6200, -75.326
 456.6300,-210.000
 456.6400,-210.000
 456.6500,-210.000
 456.6600, -69.304
 456.6700,-210.000
 456.6800, -74.701
 456.6900, -75.211
 456.7000, -71.815
 456.7100, -72.268
 456.7200, -72.132
 456.7300, -70.728
 456.7400, -73.700
 456.7500, -74.901
 456.7600, -75.396
 456.7700, -73.459
 456.7800, -76.018
 456.7900, -94.906
 456.8000, -81.497
 456.8100, -71.551
 456.8200, -75.464
 456.8300,-210.000
 456.8400,-210.000
 456.8500, -76.262
 456.8600, -75.915
 456.8700, -75.455
 456.8800,-210.000
 456.8900, -72.813
 456.9000, -73.972
 456.9100, -77.430
 456.9200, -73.051
 456.9300, -74.115
 456.9400, -76.865
 456.9500, -74.670
 456.9600, -71.585
 456.9700, -74.881
 456.9800, -79.271
 456.9900,-210.000
 457.0000, -74.499
 457.0100, -73.683
 457.0200, -71.660
 457.0300,-210.000
 457.0400,-210.000
 457.0500,-210.000
 457.0600, -74.305
 457.0700, -78.865
 457.0800,-210.000
 457.0900,-210.000
 457.1000, -75.739
 457.1100,-210.000
 457.1200, -74.426
 457.1300, -75.541
 457.1400, -74.480
 457.1500,-210.000
 457.1600, -75.494
 457.1700, -71.893
 457.1800,-210.000
 457.1900, -75.172
 457.2000, -75.481
 457.2100, -72.045
 457.2200, -80.902
 457.2300, -74.884
 457.2400,-210.000
 457.2500, -74.094
 457.2600,-210.000
 457.2700, -74.607
 457.2800, -75.053
 457.2900, -71.958
 457.3000, -76.409
 457.3100, -72.864
 457.3200, -73.738
 457.3300,-210.000
 457.3400,-210.000
 457.3500, -71.276
 457.3600, -71.291
 457.3700,-210.000
 457.3800, -78.222
 457.3900, -86.925
 457.4000, -74.997
 457.4100,-210.000
 457.4200, -73.553
 457.4300, -78.268
 457.4400, -74.178
 457.4500,-210.000
 457.4600, -71.518
 457.4700,-210.000
 457.4800, -79.643
 457.4900,-210.000
 457.5000, -91.309
 457.5100, -76.506
 457.5200, -80.324
 457.5300,-210.000
 457.5400,-210.000
 457.5500, -73.534
 457.5600, -75.867
 457.5700,-210.000
 457.5800, -69.891
 457.5900,-210.000
 457.6000, -74.848
 457.6100, -74.856
 457.6200, -76.383
 457.6300, -79.958
 457.6400, -87.376
 457.6500, -73.133
 457.6600,-210.000
 457.6700, -76.669
 457.6800, -73.324
 457.6900, -78.593
 457.7000,-210.000
 457.7100, -73.600
 457.7200,-210.000
 457.7300, -71.963
 457.7400,-210.000
 457.7500,-210.000
 457.7600, -72.067
 457.7700,-210.000
 457.7800, -72.720
 457.7900, -75.970
 457.8000, -73.894
 457.8100, -76.115
 457.8200,-210.000
 457.8300, -81.015
 457.8400, -81.553
 457.8500, -75.577
 457.8600, -80.197
 457.8700, -78.885
 457.8800,-210.000
 457.8900,-210.000
 457.9000, -81.195
 457.9100, -73.276
 457.9200,-210.000
 457.9300, -80.611
 457.9400, -74.699
 457.9500, -82.371
 457.9600, -79.718
 457.9700,-210.000
 457.9800,-210.000
 457.9900,-210.000
 458.0000, -80.147
 458.0100, -77.459
 458.0200, -77.681
 458.0300, -76.425
 458.0400,-210.000
 458.0500,-210.000
 458.0600, -73.136
 458.0700, -75.841
 458.0800, -77.899
 458.0900,-210.000
 458.1000, -79.252
 458.1100, -92.460
 458.1200,-210.000
 458.1300,-210.000
 458.1400,-210.000
 458.1500, -79.926
 458.1600, -72.943
 458.1700, -73.646
 458.1800, -78.462
 458.1900, -73.282
 458.2000,-210.000
 458.2100, -76.013
 458.2200, -73.635
 458.2300, -75.486
 458.2400,-210.000
 458.2500,-210.000
 458.2600, -74.871
 458.2700, -86.867
 458.2800, -77.583
 458.2900, -70.975
 458.3000,-210.000
 458.3100, -73.994
 458.3200,-210.000
 458.3300, -80.357
 458.3400, -75.390
 458.3500, -77.100
 458.3600, -76.163
 458.3700,-210.000
 458.3800,-210.000
 458.3900, -71.688
 458.4000, -73.766
 458.4100,-210.000
 458.4200,-210.000
 458.4300, -79.834
 458.4400,-210.000
 458.4500, -72.548
 458.4600,-210.000
 458.4700, -76.871
 458.4800,-210.000
 458.4900,-210.000
 458.5000, -79.985
 458.5100, -78.600
 458.5200, -77.723
 458.5300, -75.561
 458.5400, -84.012
 458.5500, -70.993
 458.5600,-210.000
 458.5700, -87.691
 458.5800,-210.000
 458.5900, -76.114
 458.6000,-210.000
 458.6100, -80.915
 458.6200,-210.000
 458.6300, -81.950
 458.6400, -85.355
 458.6500, -70.921
 458.6600, -74.510
 458.6700, -72.435
 458.6800,-210.000
 458.6900, -74.395
 458.7000, -75.539
 458.7100, -89.161
 458.7200, -70.612
 458.7300,-210.000
 458.7400, -75.305
 458.7500,-210.000
 458.7600, -77.415
 458.7700, -71.728
 458.7800, -73.233
 458.7900, -74.461
 458.8000, -71.904
 458.8100, -77.213
 458.8200, -72.795
 458.8300, -82.917
 458.8400,-210.000
 458.8500, -79.268
 458.8600, -74.993
 458.8700, -83.390
 458.8800, -76.074
 458.8900, -74.544
 458.9000, -70.577
 458.9100, -93.354
 458.9200, -75.533
 458.9300, -82.123
 458.9400, -71.211
 458.9500, -75.483
 458.9600, -72.632
 458.9700, -73.641
 458.9800, -73.401
 458.9900,-210.000
 459.0000, -76.596
 459.0100, -76.032
 459.0200, -84.963
 459.0300, -85.457
 459.0400,-210.000
 459.0500,-210.000
 459.0600,-210.000
 459.0700, -71.465
 459.0800, -71.067
 459.0900, -74.886
 459.1000, -77.007
 459.1100, -90.918
 459.1200,-210.000
 459.1300,-210.000
 459.1400,-210.000
 459.1500, -73.210
 459.1600, -70.743
 459.1700,-210.000
 459.1800, -80.219
 459.1900, -76.679
 459.2000,-210.000
 459.2100, -73.610
 459.2200, -76.587
 459.2300, -71.512
 459.2400,-210.000
 459.2500,-210.000
 459.2600, -75.653
 459.2700, -83.108
 459.2800, -73.408
 459.2900, -76.532
 459.3000,-210.000
 459.3100, -75.908
 459.3200, -73.942
 459.3300, -72.191
 459.3400,-210.000
 459.3500, -72.215
 459.3600,-210.000
 459.3700, -78.807
 459.3800, -73.632
 459.3900, -73.982
 459.4000, -79.414
 459.4100, -77.928
 459.4200, -75.490
 459.4300, -74.653
 459.4400, -80.102
 459.4500, -73.413
 459.4600, -74.730
 459.4700,-210.000
 459.4800, -75.277
 459.4900, -76.920
 459.5000, -77.924
 459.5100, -79.142
 459.5200, -72.650
 459.5300,-210.000
 459.5400, -82.462
 459.5500,-210.000
 459.5600, -75.501
 459.5700, -76.838
 459.5800, -74.734
 459.5900, -72.651
 459.6000, -73.271
 459.6100, -77.317
 459.6200, -76.645
 459.6300, -70.813
 459.6400, -71.330
 459.6500, -76.512
 459.6600, -74.315
 459.6700,-210.000
 459.6800,-210.000
 459.6900, -74.159
 459.7000,-210.000
 459.7100,-210.000
 459.7200, -73.240
 459.7300,-210.000
 459.7400,-210.000
 459.7500, -84.341
 459.7600,-210.000
 459.7700, -71.739
 459.7800, -77.824
 459.7900, -70.616
 459.8000, -79.196
 459.8100, -79.258
 459.8200, -73.597
 459.8300,-210.000
 459.8400,-210.000
 459.8500,-210.000
 459.8600, -80.929
 459.8700,-210.000
 459.8800, -76.461
 459.8900, -74.589
 459.9000,-210.000
 459.9100, -84.919
 459.9200,-210.000
 459.9300, -80.530
 459.9400, -72.022
 459.9500, -74.501
 459.9600, -75.120
 459.9700, -74.289
 459.9800,-210.000
 459.9900, -71.458
 460.0000, -75.182
 460.0100, -76.449
 460.0200, -70.473
 460.0300,-210.000
 460.0400, -74.266
 460.0500,-210.000
 460.0600,-210.000
 460.0700,-210.000
 460.0800,-210.000
 460.0900,-210.000
 460.1000, -75.442
 460.1100, -71.959
 460.1200, -77.851
 460.1300, -76.068
 460.1400, -77.113
 460.1500, -81.637
 460.1600,-210.000
 460.1700,-210.000
 460.1800, -75.679
 460.1900, -71.399
 460.2000, -75.982
 460.2100, -70.205
 460.2200,-210.000
 460.2300, -72.679
 460.2400, -71.568
 460.2500,-210.000
 460.2600, -77.556
 460.2700, -73.809
 460.2800, -71.732
 460.2900,-210.000
 460.3000,-210.000
 460.3100, -73.725
 460.3200,-210.000
 460.3300, -74.489
 460.3400, -76.236
 460.3500, -70.625
 460.3600, -73.792
 460.3700,-210.000
 460.3800,-210.000
 460.3900,-210.000
 460.4000,-210.000
 460.4100,-210.000
 460.4200, -75.164
 460.4300, -74.847
 460.4400, -81.321
 460.4500, -72.863
 460.4600,-210.000
 460.4700, -74.504
 460.4800, -77.628
 460.4900,-210.000
 460.5000, -74.471
 460.5100,-210.000
 460.5200,-210.000
 460.5300, -77.428
 460.5400, -71.703
 460.5500, -72.210
 460.5600,-210.000
 460.5700, -84.547
 460.5800, -69.845
 460.5900, -78.484
 460.6000,-210.000
 460.6100,-210.000
 460.6200, -71.987
 460.6300, -85.506
 460.6400, -73.580
 460.6500, -71.331
 460.6600, -75.009
 460.6700,-210.000
 460.6800,-210.000
 460.6900, -72.702
 460.7000,-210.000
 460.7100, -75.536
 460.7200, -73.133
 460.7300, -76.970
 460.7400, -72.817
 460.7500, -76.045
 460.7600, -71.493
 460.7700, -75.980
 460.7800, -76.383
 460.7900, -91.701
 460.8000, -74.030
 460.8100, -80.442
 460.8200, -83.519
 460.8300, -72.870
 460.8400,-210.000
 460.8500,-210.000
 460.8600,-210.000
 460.8700, -75.324
 460.8800,-210.000
 460.8900, -78.799
 460.9000, -79.100
 460.9100, -71.271
 460.9200, -72.058
 460.9300, -72.449
 460.9400, -78.870
 460.9500, -76.845
 460.9600, -71.184
 460.9700, -80.499
 460.9800,-210.000
 460.9900, -75.020
 461.0000, -75.922
 461.0100,-210.000
 461.0200, -71.897
 461.0300,-210.000
 461.0400,-210.000
 461.0500,-210.000
 461.0600, -75.187
 461.0700, -73.612
 461.0800, -74.096
 461.0900,-210.000
 461.1000,-210.000
 461.1100,-210.000
 461.1200, -76.452
 461.1300,-210.000
 461.1400, -75.523
 461.1500, -72.026
 461.1600, -74.797
 461.1700, -80.841
 461.1800,-210.000
 461.1900, -73.642
 461.2000, -79.368
 461.2100, -74.530
 461.2200, -74.084
 461.2300, -80.212
 461.2400, -77.398
 461.2500, -72.626
 461.2600, -72.357
 461.2700, -79.770
 461.2800, -72.274
 461.2900, -72.631
 461.3000, -72.944
 461.3100, -74.781
 461.3200,-210.000
 461.3300, -82.791
 461.3400, -80.268
 461.3500,-101.246
 461.3600,-210.000
 461.3700, -75.849
 461.3800, -71.671
 461.3900, -77.290
 461.4000, -71.431
 461.4100,-210.000
 461.4200, -76.059
 461.4300,-210.000
 461.4400, -73.326
 461.4500,-210.000
 461.4600, -78.316
 461.4700,-210.000
 461.4800, -76.189
 461.4900, -90.271
 461.5000,-210.000
 461.5100,-210.000
 461.5200, -77.466
 461.5300, -70.926
 461.5400, -76.752
 461.5500, -82.144
 461.5600,-210.000
 461.5700, -72.683
 461.5800,-210.000
 461.5900, -77.429
 461.6000, -75.468
 461.6100, -89.777
 461.6200, -79.095
 461.6300, -71.807
 461.6400, -79.450
 461.6500, -79.531
 461.6600, -75.583
 461.6700,-210.000
 461.6800, -81.903
 461.6900, -80.029
 461.7000,-210.000
 461.7100, -71.868
 461.7200,-210.000
 461.7300, -74.504
 461.7400, -73.284
 461.7500, -72.934
 461.7600,-210.000
 461.7700, -78.583
 461.7800, -70.411
 461.7900,-210.000
 461.8000,-210.000
 461.8100,-210.000
 461.8200,-210.000
 461.8300, -85.509
 461.8400, -73.385
 461.8500, -74.405
 461.8600, -73.332
 461.8700, -74.246
 461.8800, -73.508
 461.8900, -76.291
 461.9000, -80.588
 461.9100, -85.904
 461.9200, -79.162
 461.9300, -79.790
 461.9400, -75.146
 461.9500, -75.183
 461.9600, -74.388
 461.9700, -73.156
 461.9800, -81.523
 461.9900, -75.324
 462.0000,-210.000
 462.0100, -78.270
 462.0200, -73.560
 462.0300,-210.000
 462.0400,-210.000
 462.0500, -79.997
 462.0600, -73.954
 462.0700, -77.062
 462.0800, -75.204
 462.0900, -80.346
 462.1000, -72.644
 462.1100,-210.000
 462.1200, -70.882
 462.1300,-210.000
 462.1400, -73.302
 462.1500, -76.258
 462.1600, -75.226
 462.1700, -70.908
 462.1800, -74.790
 462.1900,-210.000
 462.2000, -73.646
 462.2100, -77.796
 462.2200, -78.700
 462.2300, -83.535
 462.2400, -72.795
 462.2500,-210.000
 462.2600, -74.003
 462.2700, -71.308
 462.2800,-210.000
 462.2900, -78.340
 462.3000, -75.861
 462.3100,-210.000
 462.3200,-210.000
 462.3300, -72.658
 462.3400, -72.608
 462.3500, -76.228
 462.3600,-210.000
 462.3700, -74.433
 462.3800, -84.804
 462.3900, -74.904
 462.4000, -71.465
 462.4100,-210.000
 462.4200, -71.784
 462.4300,-210.000
 462.4400,-210.000
 462.4500, -75.333
 462.4600,-210.000
 462.4700, -72.855
 462.4800, -71.863
 462.4900, -82.833
 462.5000, -71.662
 462.5100, -80.278
 462.5200, -79.641
 462.5300, -73.295
 462.5400, -76.120
 462.5500, -72.079
 462.5600,-210.000
 462.5700, -76.256
 462.5800, -77.492
 462.5900, -75.196
 462.6000,-210.000
 462.6100, -82.862
 462.6200,-210.000
 462.6300, -72.735
 462.6400, -77.175
 462.6500, -71.659
 462.6600, -81.657
 462.6700, -74.002
 462.6800, -72.825
 462.6900, -76.832
 462.7000, -76.751
 462.7100, -75.151
 462.7200, -72.265
 462.7300, -69.962
 462.7400,-210.000
 462.7500,-210.000
 462.7600, -83.144
 462.7700, -80.854
 462.7800,-210.000
 462.7900, -71.049
 462.8000, -74.821
 462.8100, -69.980
 462.8200, -78.967
 462.8300,-210.000
 462.8400,-210.000
 462.8500, -74.706
 462.8600, -75.307
 462.8700, -73.322
 462.8800, -75.310
 462.8900, -76.234
 462.9000, -76.582
 462.9100, -78.182
 462.9200, -70.861
 462.9300, -73.773
 462.9400, -81.709
 462.9500,-210.000
 462.9600, -80.380
 462.9700, -88.758
 462.9800,-210.000
 462.9900,-210.000
 463.0000, -82.456
 463.0100, -78.067
 463.0200, -79.808
 463.0300,-210.000
 463.0400,-210.000
 463.0500, -73.358
 463.0600, -74.763
 463.0700,-210.000
 463.0800,-210.000
 463.0900, -70.791
 463.1000, -72.655
 463.1100, -72.903
 463.1200, -75.426
 463.1300, -75.463
 463.1400, -71.009
 463.1500,-210.000
 463.1600, -76.780
 463.1700, -74.580
 463.1800, -71.817
 463.1900, -75.059
 463.2000, -74.226
 463.2100, -74.649
 463.2200,-210.000
 463.2300,-210.000
 463.2400, -71.338
 463.2500, -73.965
 463.2600, -76.120
 463.2700, -76.393
 463.2800,-210.000
 463.2900, -80.770
 463.3000, -74.182
 463.3100,-210.000
 463.3200, -70.391
 463.3300, -74.172
 463.3400, -73.034
 463.3500, -74.126
 463.3600,-210.000
 463.3700, -70.735
 463.3800,-210.000
 463.3900,-210.000
 463.4000,-210.000
 463.4100,-210.000
 463.4200,-210.000
 463.4300, -75.088
 463.4400, -76.696
 463.4500,-210.000
 463.4600, -75.559
 463.4700, -78.393
 463.4800,-210.000
 463.4900, -72.179
 463.5000, -73.753
 463.5100, -72.174
 463.5200, -78.267
 463.5300, -70.637
 463.5400, -75.525
 463.5500, -72.464
 463.5600, -77.142
 463.5700, -78.822
 463.5800, -84.587
 463.5900, -75.770
 463.6000, -75.671
 463.6100, -75.557
 463.6200, -79.444
 463.6300, -81.143
 463.6400,-210.000
 463.6500, -78.746
 463.6600,-210.000
 463.6700, -71.419
 463.6800, -81.668
 463.6900, -75.776
 463.7000, -70.473
 463.7100,-210.000
 463.7200, -77.125
 463.7300, -72.735
 463.7400,-210.000
 463.7500, -73.922
 463.7600,-210.000
 463.7700, -72.591
 463.7800,-210.000
 463.7900, -74.641
 463.8000, -85.086
 463.8100, -74.845
 463.8200, -75.139
 463.8300, -72.710
 463.8400, -76.585
 463.8500, -74.154
 463.8600,-210.000
 463.8700, -88.745
 463.8800, -77.882
 463.8900,-210.000
 463.9000,-210.000
 463.9100, -75.149
 463.9200,-210.000
 463.9300,-210.000
 463.9400, -71.819
 463.9500, -73.140
 463.9600, -76.993
 463.9700,-210.000
 463.9800,-210.000
 463.9900, -74.369
 464.0000, -70.929
 464.0100, -78.045
 464.0200,-210.000
 464.0300,-210.000
 464.0400,-210.000
 464.0500, -85.937
 464.0600,-210.000
 464.0700, -80.120
 464.0800, -75.400
 464.0900,-210.000
 464.1000, -79.840
 464.1100, -71.830
 464.1200, -78.866
 464.1300, -73.091
 464.1400,-210.000
 464.1500, -76.172
 464.1600, -76.692
 464.1700,-210.000
 464.1800, -81.286
 464.1900,-210.000
 464.2000,-210.000
 464.2100,-210.000
 464.2200, -72.804
 464.2300,-210.000
 464.2400, -74.078
 464.2500, -73.313
 464.2600, -82.451
 464.2700, -77.320
 464.2800,-210.000
 464.2900, -74.958
 464.3000, -80.952
 464.3100, -78.070
 464.3200,-210.000
 464.3300, -87.820
 464.3400,-210.000
 464.3500, -71.727
 464.3600, -70.542
 464.3700, -79.772
 464.3800, -78.618
 464.3900, -74.614
 464.4000,-210.000
 464.4100, -74.103
 464.4200, -76.715
 464.4300, -72.248
 464.4400, -72.028
 464.4500,-210.000
 464.4600, -73.388
 464.4700,-210.000
 464.4800, -76.440
 464.4900, -77.511
 464.5000, -71.435
 464.5100,-210.000
 464.5200, -76.433
 464.5300,-210.000
 464.5400, -72.126
 464.5500, -76.957
 464.5600,-210.000
 464.5700, -75.167
 464.5800, -78.499
 464.5900, -76.473
 464.6000, -76.852
 464.6100, -74.190
 464.6200, -77.083
 464.6300, -74.912
 464.6400, -77.979
 464.6500, -74.794
 464.6600,-210.000
 464.6700, -72.682
 464.6800, -74.872
 464.6900, -77.953
 464.7000, -74.527
 464.7100, -72.439
 464.7200, -74.503
 464.7300, -78.454
 464.7400,-210.000
 464.7500,-210.000
 464.7600, -70.295
 464.7700,-210.000
 464.7800,-210.000
 464.7900, -76.035
 464.8000, -78.480
 464.8100, -72.597
 464.8200, -72.809
 464.8300,-210.000
 464.8400,-210.000
 464.8500,-210.000
 464.8600, -74.455
 464.8700, -84.439
 464.8800, -81.938
 464.8900, -76.626
 464.9000,-210.000
 464.9100, -71.309
 464.9200, -94.446
 464.9300, -73.246
 464.9400,-210.000
 464.9500, -72.381
 464.9600, -76.863
 464.9700,-210.000
 464.9800, -76.093
 464.9900, -78.703
 465.0000, -72.121
