73CSV  	
// AQ6373B OPTICAL SPECTRUM ANALYZER //                 
35
"CTRWL", 450.000000
"SPAN",  30.000000
"START WL", 435.000000
"STOP WL", 465.000000
"WLFREQ", 0
"REFL",-55.6
"LSCL",10.0
"RESLN",0.050
"AVG",   1
"SMPLAUTO",      1
"SMPL",       3001
"SMPLINTVL",0.0100
"HIGH1"
"MEAS"
"LSUNT",0
"NMSKH","OFF"
"RESCOR",0
"SMOOTH",0
"MEASWL",0
"SWPSPD",0
"CHGPT",         -1
"RESCAL0_0",       9389
"RESCAL0_1",        538
"RESCAL0_2",    -340913
"RESCAL1_0",       9652
"RESCAL1_1",         64
"RESCAL1_2",     -41039
"CORESIZE", 0







"[TRACE DATA]"
 435.0000, -71.019
 435.0100,-210.000
 435.0200, -74.625
 435.0300,-210.000
 435.0400, -80.983
 435.0500, -81.814
 435.0600, -78.339
 435.0700, -71.010
 435.0800, -80.503
 435.0900, -80.422
 435.1000, -74.400
 435.1100, -74.230
 435.1200, -71.675
 435.1300,-210.000
 435.1400, -73.269
 435.1500, -84.229
 435.1600, -78.749
 435.1700, -78.522
 435.1800, -76.611
 435.1900, -73.736
 435.2000,-210.000
 435.2100, -74.178
 435.2200, -71.755
 435.2300, -69.292
 435.2400, -81.546
 435.2500,-210.000
 435.2600,-210.000
 435.2700, -85.118
 435.2800,-210.000
 435.2900, -73.391
 435.3000,-210.000
 435.3100, -71.280
 435.3200, -70.713
 435.3300, -68.330
 435.3400,-210.000
 435.3500,-210.000
 435.3600, -71.428
 435.3700, -73.559
 435.3800, -75.527
 435.3900, -76.799
 435.4000,-210.000
 435.4100, -69.646
 435.4200, -71.603
 435.4300,-210.000
 435.4400,-210.000
 435.4500, -71.016
 435.4600,-210.000
 435.4700, -72.341
 435.4800, -71.300
 435.4900, -77.663
 435.5000, -74.442
 435.5100, -77.807
 435.5200, -75.732
 435.5300, -87.128
 435.5400, -71.042
 435.5500,-210.000
 435.5600,-210.000
 435.5700,-210.000
 435.5800, -74.333
 435.5900,-210.000
 435.6000, -72.635
 435.6100, -78.631
 435.6200, -70.280
 435.6300, -70.313
 435.6400,-210.000
 435.6500,-210.000
 435.6600, -71.316
 435.6700, -70.989
 435.6800, -77.278
 435.6900, -73.758
 435.7000, -72.517
 435.7100, -73.053
 435.7200,-210.000
 435.7300, -84.662
 435.7400, -74.173
 435.7500,-210.000
 435.7600, -78.612
 435.7700,-210.000
 435.7800, -70.939
 435.7900,-210.000
 435.8000, -75.164
 435.8100,-210.000
 435.8200, -79.361
 435.8300,-210.000
 435.8400,-210.000
 435.8500, -82.761
 435.8600, -71.904
 435.8700, -83.206
 435.8800, -76.030
 435.8900,-210.000
 435.9000,-210.000
 435.9100, -74.330
 435.9200, -75.771
 435.9300, -72.110
 435.9400, -80.360
 435.9500, -78.338
 435.9600,-210.000
 435.9700,-210.000
 435.9800, -78.226
 435.9900, -72.800
 436.0000, -74.300
 436.0100, -72.673
 436.0200, -81.492
 436.0300, -76.632
 436.0400,-210.000
 436.0500, -74.034
 436.0600, -81.100
 436.0700, -77.837
 436.0800, -77.345
 436.0900, -73.442
 436.1000, -73.372
 436.1100, -71.528
 436.1200, -73.360
 436.1300, -71.555
 436.1400, -77.318
 436.1500, -71.540
 436.1600, -80.655
 436.1700, -73.370
 436.1800, -75.178
 436.1900, -70.705
 436.2000, -72.301
 436.2100,-210.000
 436.2200, -75.479
 436.2300, -71.348
 436.2400,-210.000
 436.2500, -75.967
 436.2600,-210.000
 436.2700, -72.433
 436.2800,-210.000
 436.2900, -76.976
 436.3000, -70.387
 436.3100, -71.353
 436.3200, -77.467
 436.3300, -69.058
 436.3400, -72.168
 436.3500,-210.000
 436.3600, -73.780
 436.3700,-210.000
 436.3800, -72.608
 436.3900,-210.000
 436.4000, -70.009
 436.4100, -99.281
 436.4200,-210.000
 436.4300, -70.238
 436.4400, -73.330
 436.4500,-210.000
 436.4600,-210.000
 436.4700, -77.041
 436.4800,-210.000
 436.4900, -86.821
 436.5000,-210.000
 436.5100, -77.738
 436.5200,-210.000
 436.5300, -72.216
 436.5400,-210.000
 436.5500,-210.000
 436.5600, -72.272
 436.5700, -72.034
 436.5800, -71.788
 436.5900, -78.874
 436.6000, -80.586
 436.6100, -71.233
 436.6200, -72.698
 436.6300,-210.000
 436.6400, -84.255
 436.6500, -80.583
 436.6600,-210.000
 436.6700, -85.478
 436.6800, -73.542
 436.6900, -70.633
 436.7000,-210.000
 436.7100,-210.000
 436.7200, -74.888
 436.7300,-210.000
 436.7400, -78.329
 436.7500, -71.619
 436.7600, -75.334
 436.7700,-210.000
 436.7800, -76.875
 436.7900,-210.000
 436.8000, -73.500
 436.8100,-210.000
 436.8200,-210.000
 436.8300,-210.000
 436.8400, -76.913
 436.8500, -72.983
 436.8600, -90.881
 436.8700, -74.733
 436.8800, -70.534
 436.8900, -76.800
 436.9000, -75.197
 436.9100, -83.505
 436.9200,-210.000
 436.9300, -73.242
 436.9400, -72.226
 436.9500,-210.000
 436.9600,-210.000
 436.9700, -68.870
 436.9800, -84.649
 436.9900,-210.000
 437.0000,-210.000
 437.0100,-210.000
 437.0200, -73.325
 437.0300, -72.611
 437.0400, -77.313
 437.0500, -72.984
 437.0600,-210.000
 437.0700,-210.000
 437.0800, -72.433
 437.0900, -75.823
 437.1000, -77.084
 437.1100,-210.000
 437.1200,-210.000
 437.1300, -72.883
 437.1400, -78.062
 437.1500, -75.514
 437.1600, -80.317
 437.1700, -75.510
 437.1800, -78.072
 437.1900, -72.774
 437.2000,-210.000
 437.2100,-210.000
 437.2200, -70.723
 437.2300,-210.000
 437.2400, -71.330
 437.2500, -77.459
 437.2600, -72.574
 437.2700, -72.879
 437.2800, -72.070
 437.2900, -73.601
 437.3000,-210.000
 437.3100, -77.245
 437.3200, -74.345
 437.3300,-210.000
 437.3400, -72.515
 437.3500, -86.158
 437.3600, -73.697
 437.3700, -73.140
 437.3800,-210.000
 437.3900, -78.146
 437.4000, -72.696
 437.4100,-210.000
 437.4200,-210.000
 437.4300, -81.330
 437.4400, -85.492
 437.4500, -82.736
 437.4600, -74.739
 437.4700, -75.839
 437.4800,-210.000
 437.4900, -87.702
 437.5000, -70.514
 437.5100, -71.366
 437.5200,-210.000
 437.5300, -80.772
 437.5400, -83.850
 437.5500, -71.198
 437.5600, -73.967
 437.5700, -75.012
 437.5800,-210.000
 437.5900, -75.138
 437.6000, -75.097
 437.6100, -71.944
 437.6200,-210.000
 437.6300, -73.627
 437.6400,-210.000
 437.6500, -72.178
 437.6600, -76.513
 437.6700,-210.000
 437.6800, -72.605
 437.6900,-210.000
 437.7000, -73.627
 437.7100, -76.144
 437.7200, -71.698
 437.7300, -77.767
 437.7400, -76.434
 437.7500,-210.000
 437.7600,-210.000
 437.7700, -74.618
 437.7800,-210.000
 437.7900, -73.901
 437.8000, -71.983
 437.8100, -82.392
 437.8200, -75.230
 437.8300,-210.000
 437.8400, -74.839
 437.8500, -79.864
 437.8600, -71.131
 437.8700, -78.292
 437.8800, -71.274
 437.8900, -76.412
 437.9000, -79.828
 437.9100, -89.560
 437.9200,-210.000
 437.9300, -73.157
 437.9400, -73.043
 437.9500,-210.000
 437.9600, -71.741
 437.9700,-210.000
 437.9800, -78.383
 437.9900, -79.679
 438.0000, -77.064
 438.0100, -73.556
 438.0200, -78.216
 438.0300, -71.756
 438.0400, -70.421
 438.0500, -70.975
 438.0600,-210.000
 438.0700, -73.618
 438.0800,-210.000
 438.0900,-210.000
 438.1000,-210.000
 438.1100, -79.194
 438.1200, -73.680
 438.1300,-210.000
 438.1400, -73.527
 438.1500, -72.616
 438.1600, -69.907
 438.1700, -77.295
 438.1800, -75.701
 438.1900,-210.000
 438.2000, -81.743
 438.2100, -84.011
 438.2200, -73.322
 438.2300, -70.297
 438.2400, -83.672
 438.2500,-210.000
 438.2600, -70.877
 438.2700,-210.000
 438.2800, -75.336
 438.2900, -81.485
 438.3000,-210.000
 438.3100, -69.465
 438.3200,-210.000
 438.3300, -79.742
 438.3400, -73.248
 438.3500, -75.634
 438.3600,-210.000
 438.3700, -73.758
 438.3800, -72.627
 438.3900,-210.000
 438.4000, -76.718
 438.4100, -78.641
 438.4200,-210.000
 438.4300,-210.000
 438.4400, -74.672
 438.4500, -74.481
 438.4600, -73.899
 438.4700, -75.380
 438.4800,-210.000
 438.4900,-210.000
 438.5000, -82.184
 438.5100,-210.000
 438.5200, -77.150
 438.5300, -74.751
 438.5400, -75.029
 438.5500, -74.297
 438.5600, -69.476
 438.5700, -71.450
 438.5800, -72.293
 438.5900, -77.140
 438.6000, -72.722
 438.6100, -72.905
 438.6200, -69.963
 438.6300, -73.848
 438.6400, -70.784
 438.6500, -83.405
 438.6600,-210.000
 438.6700,-210.000
 438.6800, -76.518
 438.6900,-210.000
 438.7000, -73.882
 438.7100, -75.426
 438.7200, -75.930
 438.7300, -71.826
 438.7400, -75.856
 438.7500, -74.025
 438.7600, -75.809
 438.7700, -72.863
 438.7800,-210.000
 438.7900, -71.377
 438.8000, -79.810
 438.8100, -69.127
 438.8200, -77.099
 438.8300, -73.099
 438.8400, -70.330
 438.8500, -73.954
 438.8600, -71.566
 438.8700, -80.490
 438.8800, -71.214
 438.8900, -77.951
 438.9000,-210.000
 438.9100, -76.561
 438.9200,-210.000
 438.9300, -75.460
 438.9400, -72.315
 438.9500,-210.000
 438.9600, -74.339
 438.9700, -82.610
 438.9800, -74.059
 438.9900, -71.291
 439.0000,-210.000
 439.0100, -73.790
 439.0200, -86.176
 439.0300, -77.246
 439.0400,-210.000
 439.0500, -84.444
 439.0600, -85.287
 439.0700, -69.449
 439.0800, -70.796
 439.0900, -78.776
 439.1000,-210.000
 439.1100, -77.084
 439.1200, -74.582
 439.1300,-210.000
 439.1400, -73.764
 439.1500, -76.856
 439.1600,-210.000
 439.1700, -75.797
 439.1800,-210.000
 439.1900, -76.556
 439.2000,-210.000
 439.2100,-210.000
 439.2200,-210.000
 439.2300, -80.441
 439.2400,-210.000
 439.2500,-210.000
 439.2600, -74.230
 439.2700, -81.463
 439.2800, -74.771
 439.2900, -70.948
 439.3000, -77.773
 439.3100,-210.000
 439.3200, -71.696
 439.3300, -77.128
 439.3400,-210.000
 439.3500, -75.145
 439.3600, -80.050
 439.3700,-210.000
 439.3800,-210.000
 439.3900, -73.122
 439.4000,-210.000
 439.4100, -74.494
 439.4200, -74.161
 439.4300, -73.342
 439.4400, -70.466
 439.4500, -72.552
 439.4600, -75.677
 439.4700, -72.460
 439.4800, -76.400
 439.4900, -74.335
 439.5000,-210.000
 439.5100, -85.358
 439.5200,-210.000
 439.5300, -88.089
 439.5400, -72.156
 439.5500, -81.865
 439.5600, -75.372
 439.5700,-210.000
 439.5800,-210.000
 439.5900, -68.909
 439.6000, -85.616
 439.6100, -73.286
 439.6200, -70.913
 439.6300, -71.904
 439.6400,-210.000
 439.6500,-210.000
 439.6600,-210.000
 439.6700, -73.739
 439.6800, -85.565
 439.6900, -76.192
 439.7000,-210.000
 439.7100,-210.000
 439.7200, -74.456
 439.7300, -74.662
 439.7400,-210.000
 439.7500,-210.000
 439.7600, -76.723
 439.7700, -76.752
 439.7800, -74.703
 439.7900, -72.848
 439.8000,-210.000
 439.8100,-210.000
 439.8200, -84.615
 439.8300, -74.182
 439.8400,-210.000
 439.8500,-210.000
 439.8600,-210.000
 439.8700,-210.000
 439.8800, -74.600
 439.8900,-210.000
 439.9000, -77.425
 439.9100,-210.000
 439.9200, -75.313
 439.9300,-210.000
 439.9400,-210.000
 439.9500, -70.567
 439.9600,-210.000
 439.9700, -69.705
 439.9800, -75.588
 439.9900, -72.008
 440.0000,-210.000
 440.0100, -74.522
 440.0200,-210.000
 440.0300, -82.338
 440.0400, -81.226
 440.0500, -72.806
 440.0600,-210.000
 440.0700, -70.715
 440.0800,-210.000
 440.0900,-210.000
 440.1000, -86.247
 440.1100,-210.000
 440.1200, -73.672
 440.1300, -72.350
 440.1400, -78.304
 440.1500, -70.516
 440.1600, -71.980
 440.1700, -72.734
 440.1800, -74.613
 440.1900, -78.593
 440.2000,-210.000
 440.2100, -75.521
 440.2200,-210.000
 440.2300, -73.030
 440.2400, -74.240
 440.2500,-210.000
 440.2600, -75.474
 440.2700, -75.131
 440.2800, -85.782
 440.2900, -78.783
 440.3000, -74.862
 440.3100, -75.736
 440.3200, -71.804
 440.3300,-210.000
 440.3400, -78.728
 440.3500,-210.000
 440.3600,-210.000
 440.3700, -79.554
 440.3800, -75.842
 440.3900, -71.388
 440.4000, -73.740
 440.4100,-210.000
 440.4200,-210.000
 440.4300, -71.315
 440.4400, -70.989
 440.4500, -76.053
 440.4600, -72.436
 440.4700, -72.823
 440.4800,-210.000
 440.4900,-210.000
 440.5000,-210.000
 440.5100, -72.309
 440.5200, -73.214
 440.5300, -72.532
 440.5400, -86.582
 440.5500, -75.369
 440.5600, -72.287
 440.5700, -74.445
 440.5800, -73.000
 440.5900, -74.063
 440.6000, -78.243
 440.6100,-210.000
 440.6200, -76.780
 440.6300, -73.584
 440.6400,-210.000
 440.6500, -75.414
 440.6600,-210.000
 440.6700,-210.000
 440.6800, -73.838
 440.6900,-210.000
 440.7000, -75.741
 440.7100, -72.201
 440.7200,-210.000
 440.7300, -72.654
 440.7400, -76.329
 440.7500, -79.351
 440.7600, -73.079
 440.7700,-210.000
 440.7800,-210.000
 440.7900, -71.444
 440.8000, -77.323
 440.8100, -70.877
 440.8200, -73.174
 440.8300, -71.990
 440.8400,-210.000
 440.8500, -77.591
 440.8600, -73.936
 440.8700, -68.778
 440.8800,-210.000
 440.8900, -79.177
 440.9000,-210.000
 440.9100,-210.000
 440.9200, -83.279
 440.9300, -72.065
 440.9400,-210.000
 440.9500, -71.897
 440.9600, -87.619
 440.9700,-210.000
 440.9800,-210.000
 440.9900, -78.778
 441.0000,-210.000
 441.0100, -77.347
 441.0200,-210.000
 441.0300, -74.011
 441.0400, -70.356
 441.0500, -75.472
 441.0600, -78.786
 441.0700, -87.318
 441.0800, -74.128
 441.0900, -76.744
 441.1000, -72.810
 441.1100,-210.000
 441.1200,-210.000
 441.1300,-210.000
 441.1400,-210.000
 441.1500,-210.000
 441.1600,-210.000
 441.1700, -75.173
 441.1800, -72.620
 441.1900, -77.948
 441.2000,-210.000
 441.2100, -72.077
 441.2200, -70.330
 441.2300,-210.000
 441.2400, -75.779
 441.2500, -73.031
 441.2600, -77.036
 441.2700, -75.632
 441.2800,-210.000
 441.2900, -80.305
 441.3000,-210.000
 441.3100,-210.000
 441.3200,-210.000
 441.3300,-210.000
 441.3400, -78.204
 441.3500, -72.718
 441.3600, -76.199
 441.3700, -75.684
 441.3800, -74.384
 441.3900, -77.556
 441.4000, -84.693
 441.4100, -77.488
 441.4200, -75.106
 441.4300, -73.890
 441.4400, -76.206
 441.4500,-210.000
 441.4600, -78.506
 441.4700, -75.224
 441.4800, -69.813
 441.4900, -76.793
 441.5000, -75.313
 441.5100, -72.604
 441.5200, -77.534
 441.5300, -73.824
 441.5400, -92.649
 441.5500, -70.369
 441.5600, -83.592
 441.5700, -73.182
 441.5800, -79.071
 441.5900, -78.083
 441.6000, -87.937
 441.6100, -71.661
 441.6200, -78.354
 441.6300,-210.000
 441.6400,-210.000
 441.6500, -81.203
 441.6600, -78.902
 441.6700, -71.844
 441.6800, -77.573
 441.6900, -80.040
 441.7000, -73.029
 441.7100, -76.235
 441.7200, -71.745
 441.7300, -73.712
 441.7400,-210.000
 441.7500, -70.349
 441.7600,-210.000
 441.7700, -77.332
 441.7800,-210.000
 441.7900,-210.000
 441.8000, -78.407
 441.8100,-210.000
 441.8200, -85.188
 441.8300, -75.126
 441.8400,-210.000
 441.8500, -78.034
 441.8600, -72.394
 441.8700, -77.924
 441.8800, -78.031
 441.8900,-210.000
 441.9000, -76.828
 441.9100, -70.583
 441.9200, -71.793
 441.9300,-210.000
 441.9400, -80.816
 441.9500, -75.284
 441.9600, -73.197
 441.9700, -74.250
 441.9800, -78.659
 441.9900, -73.546
 442.0000, -72.647
 442.0100, -71.880
 442.0200, -73.835
 442.0300,-210.000
 442.0400,-210.000
 442.0500, -77.831
 442.0600, -70.081
 442.0700, -72.188
 442.0800, -90.053
 442.0900, -73.324
 442.1000, -73.192
 442.1100, -92.803
 442.1200, -71.459
 442.1300, -76.379
 442.1400,-210.000
 442.1500, -81.148
 442.1600, -75.786
 442.1700, -70.841
 442.1800, -70.291
 442.1900,-210.000
 442.2000, -75.397
 442.2100, -73.325
 442.2200,-210.000
 442.2300, -73.096
 442.2400, -72.015
 442.2500, -71.985
 442.2600,-210.000
 442.2700,-210.000
 442.2800, -78.446
 442.2900, -73.905
 442.3000, -70.043
 442.3100, -73.387
 442.3200,-210.000
 442.3300, -78.281
 442.3400, -83.256
 442.3500, -70.056
 442.3600, -73.947
 442.3700, -70.643
 442.3800,-210.000
 442.3900, -79.651
 442.4000, -71.297
 442.4100, -74.044
 442.4200, -88.614
 442.4300, -71.530
 442.4400,-210.000
 442.4500,-210.000
 442.4600, -70.475
 442.4700, -70.549
 442.4800, -80.010
 442.4900, -71.434
 442.5000,-210.000
 442.5100, -71.826
 442.5200, -70.623
 442.5300, -74.579
 442.5400, -73.287
 442.5500,-210.000
 442.5600, -93.342
 442.5700,-210.000
 442.5800,-210.000
 442.5900, -72.270
 442.6000,-210.000
 442.6100, -73.984
 442.6200,-210.000
 442.6300, -89.340
 442.6400, -75.399
 442.6500, -77.056
 442.6600, -83.390
 442.6700, -75.840
 442.6800, -74.866
 442.6900, -74.169
 442.7000, -77.135
 442.7100, -79.776
 442.7200, -78.836
 442.7300, -76.468
 442.7400, -71.659
 442.7500,-210.000
 442.7600,-210.000
 442.7700,-210.000
 442.7800, -80.775
 442.7900, -72.587
 442.8000, -71.301
 442.8100, -75.712
 442.8200,-210.000
 442.8300, -74.011
 442.8400, -75.596
 442.8500, -73.745
 442.8600, -69.747
 442.8700,-210.000
 442.8800, -75.262
 442.8900, -72.114
 442.9000,-210.000
 442.9100, -72.857
 442.9200, -77.375
 442.9300,-210.000
 442.9400,-210.000
 442.9500, -73.794
 442.9600, -73.451
 442.9700, -71.579
 442.9800, -73.761
 442.9900, -72.423
 443.0000, -75.971
 443.0100,-210.000
 443.0200,-210.000
 443.0300, -77.099
 443.0400,-210.000
 443.0500, -69.051
 443.0600, -76.625
 443.0700, -76.200
 443.0800,-210.000
 443.0900, -76.011
 443.1000, -71.697
 443.1100, -76.692
 443.1200, -71.759
 443.1300, -79.419
 443.1400, -73.279
 443.1500, -70.181
 443.1600,-210.000
 443.1700,-210.000
 443.1800, -74.164
 443.1900, -85.157
 443.2000, -76.924
 443.2100, -77.877
 443.2200, -70.145
 443.2300, -69.835
 443.2400, -81.445
 443.2500, -79.446
 443.2600, -71.216
 443.2700,-210.000
 443.2800,-210.000
 443.2900, -74.006
 443.3000, -87.614
 443.3100, -70.732
 443.3200, -75.033
 443.3300,-210.000
 443.3400, -75.113
 443.3500, -75.957
 443.3600, -71.426
 443.3700, -72.716
 443.3800,-210.000
 443.3900, -73.442
 443.4000, -71.566
 443.4100, -76.644
 443.4200,-210.000
 443.4300, -73.000
 443.4400,-210.000
 443.4500, -69.859
 443.4600,-210.000
 443.4700,-210.000
 443.4800,-210.000
 443.4900, -73.099
 443.5000,-210.000
 443.5100, -72.410
 443.5200,-210.000
 443.5300, -71.492
 443.5400,-210.000
 443.5500, -81.883
 443.5600,-210.000
 443.5700,-210.000
 443.5800, -73.502
 443.5900, -74.743
 443.6000, -73.769
 443.6100, -81.889
 443.6200, -71.561
 443.6300, -69.222
 443.6400, -76.334
 443.6500, -77.857
 443.6600, -73.459
 443.6700, -75.811
 443.6800, -82.819
 443.6900,-210.000
 443.7000, -69.185
 443.7100,-210.000
 443.7200, -74.131
 443.7300,-210.000
 443.7400,-210.000
 443.7500, -72.783
 443.7600, -72.227
 443.7700, -81.074
 443.7800, -76.244
 443.7900, -69.435
 443.8000, -75.492
 443.8100, -78.276
 443.8200,-210.000
 443.8300, -78.581
 443.8400,-210.000
 443.8500, -74.690
 443.8600, -70.363
 443.8700, -74.915
 443.8800, -82.523
 443.8900, -69.705
 443.9000, -74.042
 443.9100,-210.000
 443.9200, -74.981
 443.9300, -73.467
 443.9400,-210.000
 443.9500, -89.807
 443.9600, -83.033
 443.9700,-210.000
 443.9800, -70.922
 443.9900,-210.000
 444.0000, -77.867
 444.0100, -75.740
 444.0200, -79.438
 444.0300,-210.000
 444.0400, -71.571
 444.0500, -72.541
 444.0600,-210.000
 444.0700, -72.212
 444.0800,-210.000
 444.0900, -72.081
 444.1000,-210.000
 444.1100, -76.426
 444.1200, -77.345
 444.1300, -76.063
 444.1400, -74.053
 444.1500, -71.730
 444.1600, -71.628
 444.1700, -72.166
 444.1800, -76.149
 444.1900, -74.043
 444.2000,-210.000
 444.2100, -72.736
 444.2200,-210.000
 444.2300, -71.975
 444.2400, -75.311
 444.2500, -79.595
 444.2600, -76.999
 444.2700, -88.701
 444.2800,-210.000
 444.2900, -70.100
 444.3000,-210.000
 444.3100,-210.000
 444.3200,-210.000
 444.3300, -74.822
 444.3400,-210.000
 444.3500, -74.790
 444.3600, -78.946
 444.3700, -88.496
 444.3800, -72.412
 444.3900, -91.473
 444.4000,-210.000
 444.4100,-210.000
 444.4200,-210.000
 444.4300, -76.886
 444.4400, -70.494
 444.4500, -72.072
 444.4600,-210.000
 444.4700,-210.000
 444.4800, -87.726
 444.4900,-210.000
 444.5000, -72.202
 444.5100, -85.608
 444.5200,-210.000
 444.5300,-210.000
 444.5400, -80.342
 444.5500, -71.399
 444.5600,-210.000
 444.5700, -74.082
 444.5800, -72.570
 444.5900,-210.000
 444.6000,-210.000
 444.6100, -76.028
 444.6200, -71.806
 444.6300, -78.974
 444.6400, -70.158
 444.6500,-210.000
 444.6600, -71.075
 444.6700, -75.262
 444.6800, -74.218
 444.6900, -70.751
 444.7000, -71.827
 444.7100, -71.354
 444.7200, -74.973
 444.7300,-210.000
 444.7400, -77.910
 444.7500, -72.868
 444.7600, -76.835
 444.7700,-210.000
 444.7800, -71.727
 444.7900, -77.548
 444.8000, -76.425
 444.8100, -70.336
 444.8200, -73.208
 444.8300,-210.000
 444.8400, -77.406
 444.8500,-210.000
 444.8600, -72.399
 444.8700,-210.000
 444.8800,-210.000
 444.8900, -73.931
 444.9000, -71.674
 444.9100,-210.000
 444.9200,-210.000
 444.9300, -71.501
 444.9400,-210.000
 444.9500,-210.000
 444.9600, -72.937
 444.9700, -71.273
 444.9800, -76.691
 444.9900, -73.122
 445.0000, -72.358
 445.0100,-210.000
 445.0200, -70.628
 445.0300, -71.717
 445.0400, -79.767
 445.0500, -69.411
 445.0600,-210.000
 445.0700, -71.996
 445.0800, -71.625
 445.0900, -75.173
 445.1000, -73.102
 445.1100,-210.000
 445.1200, -76.261
 445.1300,-210.000
 445.1400,-210.000
 445.1500, -76.790
 445.1600,-210.000
 445.1700,-210.000
 445.1800, -72.256
 445.1900, -76.061
 445.2000, -74.306
 445.2100,-210.000
 445.2200, -73.754
 445.2300, -74.323
 445.2400, -70.842
 445.2500, -77.468
 445.2600, -71.015
 445.2700, -72.857
 445.2800,-210.000
 445.2900, -70.295
 445.3000,-210.000
 445.3100, -78.341
 445.3200,-210.000
 445.3300, -74.713
 445.3400, -72.716
 445.3500, -75.628
 445.3600, -70.124
 445.3700,-210.000
 445.3800,-210.000
 445.3900, -70.998
 445.4000, -77.166
 445.4100, -84.456
 445.4200, -73.213
 445.4300, -71.696
 445.4400, -80.297
 445.4500, -79.411
 445.4600, -73.180
 445.4700, -72.850
 445.4800,-210.000
 445.4900, -73.804
 445.5000, -74.180
 445.5100, -77.197
 445.5200,-210.000
 445.5300, -75.098
 445.5400, -74.730
 445.5500, -72.879
 445.5600,-210.000
 445.5700, -72.638
 445.5800, -83.315
 445.5900, -73.501
 445.6000, -70.547
 445.6100, -76.141
 445.6200, -71.202
 445.6300, -73.605
 445.6400,-210.000
 445.6500,-210.000
 445.6600, -75.089
 445.6700, -76.338
 445.6800, -78.088
 445.6900, -71.410
 445.7000, -68.972
 445.7100,-210.000
 445.7200,-210.000
 445.7300, -71.311
 445.7400, -72.229
 445.7500, -75.614
 445.7600, -73.219
 445.7700, -69.031
 445.7800, -73.671
 445.7900, -74.671
 445.8000, -70.763
 445.8100, -72.259
 445.8200, -72.604
 445.8300, -74.902
 445.8400, -72.501
 445.8500, -73.351
 445.8600, -77.454
 445.8700, -78.788
 445.8800, -72.128
 445.8900,-210.000
 445.9000, -91.377
 445.9100, -72.849
 445.9200, -75.538
 445.9300,-210.000
 445.9400,-210.000
 445.9500,-210.000
 445.9600,-210.000
 445.9700, -74.795
 445.9800,-210.000
 445.9900, -73.037
 446.0000,-210.000
 446.0100, -74.841
 446.0200,-210.000
 446.0300,-210.000
 446.0400, -72.121
 446.0500, -71.123
 446.0600,-210.000
 446.0700, -73.257
 446.0800,-210.000
 446.0900, -72.948
 446.1000, -71.056
 446.1100, -72.268
 446.1200, -71.836
 446.1300,-210.000
 446.1400, -77.783
 446.1500, -75.505
 446.1600, -79.969
 446.1700, -72.434
 446.1800, -75.616
 446.1900,-210.000
 446.2000,-210.000
 446.2100, -73.224
 446.2200,-210.000
 446.2300,-210.000
 446.2400,-210.000
 446.2500, -74.629
 446.2600,-210.000
 446.2700, -73.249
 446.2800,-210.000
 446.2900,-210.000
 446.3000, -77.553
 446.3100, -74.136
 446.3200, -80.018
 446.3300, -72.306
 446.3400,-210.000
 446.3500, -74.561
 446.3600,-210.000
 446.3700, -71.133
 446.3800, -75.235
 446.3900, -71.727
 446.4000,-210.000
 446.4100, -76.828
 446.4200, -73.887
 446.4300, -74.125
 446.4400, -75.105
 446.4500, -75.185
 446.4600, -82.524
 446.4700, -75.601
 446.4800, -73.050
 446.4900, -72.450
 446.5000, -71.210
 446.5100, -70.570
 446.5200, -90.271
 446.5300,-210.000
 446.5400,-210.000
 446.5500, -73.333
 446.5600,-210.000
 446.5700, -71.738
 446.5800,-210.000
 446.5900, -69.756
 446.6000, -72.490
 446.6100, -82.499
 446.6200,-210.000
 446.6300, -71.241
 446.6400,-210.000
 446.6500, -71.355
 446.6600,-210.000
 446.6700, -74.580
 446.6800, -70.367
 446.6900, -77.809
 446.7000, -84.626
 446.7100, -73.063
 446.7200,-210.000
 446.7300, -69.463
 446.7400, -69.405
 446.7500, -73.744
 446.7600, -74.588
 446.7700, -72.612
 446.7800,-210.000
 446.7900, -74.940
 446.8000,-210.000
 446.8100, -81.692
 446.8200, -73.933
 446.8300,-210.000
 446.8400,-210.000
 446.8500,-210.000
 446.8600, -70.406
 446.8700,-210.000
 446.8800, -68.511
 446.8900, -76.350
 446.9000,-210.000
 446.9100, -71.727
 446.9200, -73.222
 446.9300, -83.220
 446.9400,-210.000
 446.9500,-210.000
 446.9600, -80.910
 446.9700, -75.643
 446.9800, -77.155
 446.9900, -75.247
 447.0000, -73.380
 447.0100, -72.946
 447.0200, -71.080
 447.0300, -75.218
 447.0400,-210.000
 447.0500, -74.053
 447.0600, -70.127
 447.0700, -72.969
 447.0800, -73.188
 447.0900, -71.935
 447.1000, -84.572
 447.1100,-210.000
 447.1200, -74.858
 447.1300,-210.000
 447.1400,-210.000
 447.1500, -74.544
 447.1600,-210.000
 447.1700,-210.000
 447.1800,-210.000
 447.1900,-210.000
 447.2000, -75.415
 447.2100, -73.100
 447.2200,-210.000
 447.2300, -72.311
 447.2400,-210.000
 447.2500, -72.146
 447.2600, -73.878
 447.2700, -73.257
 447.2800, -70.981
 447.2900, -76.734
 447.3000,-210.000
 447.3100, -76.231
 447.3200, -75.092
 447.3300,-210.000
 447.3400, -76.629
 447.3500, -75.354
 447.3600,-210.000
 447.3700,-210.000
 447.3800, -71.578
 447.3900,-210.000
 447.4000, -87.338
 447.4100, -74.666
 447.4200, -73.992
 447.4300, -70.029
 447.4400, -71.663
 447.4500, -76.074
 447.4600,-210.000
 447.4700, -89.580
 447.4800,-210.000
 447.4900, -74.038
 447.5000, -73.158
 447.5100, -80.568
 447.5200, -78.479
 447.5300, -84.269
 447.5400, -80.130
 447.5500, -74.513
 447.5600, -74.103
 447.5700, -78.896
 447.5800, -73.986
 447.5900,-210.000
 447.6000, -73.061
 447.6100, -71.617
 447.6200,-210.000
 447.6300, -76.074
 447.6400,-210.000
 447.6500, -71.198
 447.6600, -72.384
 447.6700, -71.824
 447.6800,-210.000
 447.6900, -83.238
 447.7000, -70.650
 447.7100,-210.000
 447.7200, -87.052
 447.7300,-210.000
 447.7400,-210.000
 447.7500, -83.953
 447.7600, -80.346
 447.7700, -70.950
 447.7800, -72.175
 447.7900,-210.000
 447.8000, -72.031
 447.8100,-210.000
 447.8200, -75.528
 447.8300,-210.000
 447.8400, -72.077
 447.8500, -75.453
 447.8600,-210.000
 447.8700,-210.000
 447.8800, -74.596
 447.8900, -78.245
 447.9000,-210.000
 447.9100, -76.968
 447.9200,-210.000
 447.9300, -73.772
 447.9400, -72.722
 447.9500, -70.900
 447.9600, -69.281
 447.9700,-210.000
 447.9800, -77.777
 447.9900, -72.271
 448.0000, -78.256
 448.0100, -80.592
 448.0200, -73.162
 448.0300, -76.692
 448.0400,-210.000
 448.0500, -73.107
 448.0600, -78.820
 448.0700, -70.705
 448.0800, -77.986
 448.0900, -78.366
 448.1000, -75.649
 448.1100,-210.000
 448.1200,-210.000
 448.1300, -73.089
 448.1400, -72.642
 448.1500,-210.000
 448.1600, -70.542
 448.1700,-210.000
 448.1800,-119.221
 448.1900, -72.231
 448.2000, -76.576
 448.2100, -77.856
 448.2200,-210.000
 448.2300,-210.000
 448.2400, -77.076
 448.2500, -79.570
 448.2600,-210.000
 448.2700, -73.591
 448.2800, -84.769
 448.2900, -90.230
 448.3000,-210.000
 448.3100,-210.000
 448.3200, -85.973
 448.3300, -74.225
 448.3400, -70.362
 448.3500,-210.000
 448.3600, -72.307
 448.3700, -74.491
 448.3800,-210.000
 448.3900, -75.274
 448.4000, -77.616
 448.4100, -69.744
 448.4200, -71.295
 448.4300, -75.491
 448.4400,-210.000
 448.4500, -71.606
 448.4600, -75.156
 448.4700, -73.791
 448.4800, -72.638
 448.4900, -76.650
 448.5000, -77.891
 448.5100, -73.120
 448.5200,-210.000
 448.5300, -81.239
 448.5400, -73.949
 448.5500, -74.725
 448.5600, -90.607
 448.5700,-210.000
 448.5800, -72.821
 448.5900,-210.000
 448.6000, -71.767
 448.6100, -72.301
 448.6200,-210.000
 448.6300,-210.000
 448.6400, -74.403
 448.6500,-210.000
 448.6600, -74.694
 448.6700,-210.000
 448.6800, -69.168
 448.6900, -78.980
 448.7000, -76.715
 448.7100,-210.000
 448.7200, -70.489
 448.7300, -76.449
 448.7400,-210.000
 448.7500, -74.776
 448.7600,-210.000
 448.7700,-210.000
 448.7800, -73.927
 448.7900, -72.139
 448.8000, -78.059
 448.8100,-210.000
 448.8200,-210.000
 448.8300, -73.748
 448.8400, -76.237
 448.8500,-210.000
 448.8600, -74.621
 448.8700, -77.226
 448.8800, -74.928
 448.8900, -70.584
 448.9000, -76.096
 448.9100, -97.009
 448.9200, -74.825
 448.9300, -74.377
 448.9400, -73.792
 448.9500,-210.000
 448.9600,-210.000
 448.9700,-210.000
 448.9800, -75.402
 448.9900,-210.000
 449.0000, -71.670
 449.0100,-210.000
 449.0200, -88.293
 449.0300,-210.000
 449.0400, -72.028
 449.0500,-210.000
 449.0600, -86.085
 449.0700, -78.111
 449.0800, -71.746
 449.0900, -71.831
 449.1000, -73.360
 449.1100, -76.151
 449.1200,-210.000
 449.1300, -74.229
 449.1400, -73.994
 449.1500, -78.398
 449.1600, -73.553
 449.1700, -80.096
 449.1800,-210.000
 449.1900,-210.000
 449.2000, -76.531
 449.2100, -73.115
 449.2200, -71.474
 449.2300, -72.390
 449.2400, -73.587
 449.2500,-210.000
 449.2600, -81.465
 449.2700, -78.483
 449.2800, -86.201
 449.2900, -76.640
 449.3000, -79.090
 449.3100, -76.857
 449.3200, -80.906
 449.3300,-210.000
 449.3400, -74.656
 449.3500, -75.438
 449.3600, -73.741
 449.3700, -72.556
 449.3800,-210.000
 449.3900,-210.000
 449.4000, -74.171
 449.4100,-210.000
 449.4200,-210.000
 449.4300, -71.180
 449.4400, -76.770
 449.4500, -86.847
 449.4600, -73.415
 449.4700, -80.961
 449.4800, -78.353
 449.4900,-210.000
 449.5000, -77.064
 449.5100, -72.948
 449.5200, -73.326
 449.5300, -80.825
 449.5400, -75.493
 449.5500,-210.000
 449.5600, -71.842
 449.5700,-210.000
 449.5800, -72.538
 449.5900, -73.885
 449.6000, -76.543
 449.6100, -71.464
 449.6200, -72.553
 449.6300, -77.766
 449.6400, -70.814
 449.6500, -73.333
 449.6600, -68.723
 449.6700, -68.369
 449.6800, -67.276
 449.6900, -68.576
 449.7000, -70.433
 449.7100, -67.798
 449.7200, -70.199
 449.7300, -68.315
 449.7400, -66.609
 449.7500, -67.259
 449.7600, -66.372
 449.7700, -65.633
 449.7800, -66.411
 449.7900, -68.552
 449.8000, -67.111
 449.8100, -66.672
 449.8200, -66.233
 449.8300, -68.061
 449.8400, -67.642
 449.8500, -64.882
 449.8600, -67.147
 449.8700, -66.170
 449.8800, -65.745
 449.8900, -65.655
 449.9000, -65.216
 449.9100, -65.906
 449.9200, -64.831
 449.9300, -64.626
 449.9400, -64.273
 449.9500, -64.570
 449.9600, -64.460
 449.9700, -65.326
 449.9800, -65.023
 449.9900, -63.583
 450.0000, -63.444
 450.0100, -62.483
 450.0200, -62.789
 450.0300, -62.275
 450.0400, -61.886
 450.0500, -63.003
 450.0600, -63.042
 450.0700, -61.771
 450.0800, -63.117
 450.0900, -62.206
 450.1000, -62.882
 450.1100, -62.886
 450.1200, -62.727
 450.1300, -62.360
 450.1400, -61.838
 450.1500, -62.061
 450.1600, -61.803
 450.1700, -61.557
 450.1800, -61.961
 450.1900, -61.780
 450.2000, -61.584
 450.2100, -61.848
 450.2200, -62.814
 450.2300, -61.914
 450.2400, -61.621
 450.2500, -61.972
 450.2600, -62.158
 450.2700, -61.715
 450.2800, -60.704
 450.2900, -61.245
 450.3000, -60.783
 450.3100, -60.772
 450.3200, -61.607
 450.3300, -62.265
 450.3400, -60.773
 450.3500, -60.837
 450.3600, -60.679
 450.3700, -61.020
 450.3800, -60.675
 450.3900, -60.741
 450.4000, -61.536
 450.4100, -60.832
 450.4200, -61.636
 450.4300, -61.130
 450.4400, -62.025
 450.4500, -61.870
 450.4600, -61.821
 450.4700, -61.703
 450.4800, -61.963
 450.4900, -61.774
 450.5000, -61.136
 450.5100, -60.872
 450.5200, -60.481
 450.5300, -60.005
 450.5400, -59.528
 450.5500, -59.918
 450.5600, -59.480
 450.5700, -59.610
 450.5800, -59.594
 450.5900, -59.522
 450.6000, -59.390
 450.6100, -59.758
 450.6200, -60.050
 450.6300, -59.617
 450.6400, -59.385
 450.6500, -59.124
 450.6600, -58.703
 450.6700, -58.355
 450.6800, -57.753
 450.6900, -57.460
 450.7000, -57.459
 450.7100, -57.654
 450.7200, -57.191
 450.7300, -57.182
 450.7400, -57.117
 450.7500, -57.113
 450.7600, -57.121
 450.7700, -56.893
 450.7800, -57.332
 450.7900, -57.481
 450.8000, -57.259
 450.8100, -57.086
 450.8200, -57.130
 450.8300, -57.010
 450.8400, -56.817
 450.8500, -56.561
 450.8600, -56.512
 450.8700, -56.654
 450.8800, -56.580
 450.8900, -56.502
 450.9000, -56.380
 450.9100, -56.583
 450.9200, -56.842
 450.9300, -56.488
 450.9400, -56.914
 450.9500, -57.045
 450.9600, -57.200
 450.9700, -57.269
 450.9800, -57.443
 450.9900, -57.624
 451.0000, -57.163
 451.0100, -57.215
 451.0200, -57.313
 451.0300, -57.298
 451.0400, -57.485
 451.0500, -57.606
 451.0600, -57.471
 451.0700, -57.422
 451.0800, -58.139
 451.0900, -58.342
 451.1000, -58.723
 451.1100, -59.230
 451.1200, -59.645
 451.1300, -59.582
 451.1400, -60.626
 451.1500, -60.169
 451.1600, -61.594
 451.1700, -63.581
 451.1800, -63.595
 451.1900, -63.559
 451.2000, -64.957
 451.2100, -64.651
 451.2200, -65.746
 451.2300, -64.073
 451.2400, -63.659
 451.2500, -63.003
 451.2600, -62.607
 451.2700, -62.585
 451.2800, -62.038
 451.2900, -62.022
 451.3000, -61.733
 451.3100, -60.508
 451.3200, -60.758
 451.3300, -61.399
 451.3400, -61.613
 451.3500, -62.788
 451.3600, -63.020
 451.3700, -62.477
 451.3800, -62.536
 451.3900, -62.063
 451.4000, -61.972
 451.4100, -61.614
 451.4200, -60.821
 451.4300, -61.262
 451.4400, -59.939
 451.4500, -60.082
 451.4600, -59.641
 451.4700, -59.703
 451.4800, -59.888
 451.4900, -59.463
 451.5000, -59.964
 451.5100, -59.772
 451.5200, -60.451
 451.5300, -60.228
 451.5400, -60.288
 451.5500, -61.284
 451.5600, -61.070
 451.5700, -60.988
 451.5800, -60.254
 451.5900, -60.606
 451.6000, -59.944
 451.6100, -59.216
 451.6200, -58.977
 451.6300, -58.355
 451.6400, -58.336
 451.6500, -58.412
 451.6600, -58.536
 451.6700, -58.840
 451.6800, -59.185
 451.6900, -58.981
 451.7000, -58.232
 451.7100, -58.902
 451.7200, -59.252
 451.7300, -59.083
 451.7400, -59.287
 451.7500, -59.265
 451.7600, -59.212
 451.7700, -58.625
 451.7800, -58.246
 451.7900, -58.484
 451.8000, -58.244
 451.8100, -57.635
 451.8200, -57.760
 451.8300, -57.742
 451.8400, -57.880
 451.8500, -58.334
 451.8600, -58.581
 451.8700, -59.427
 451.8800, -58.845
 451.8900, -58.947
 451.9000, -59.079
 451.9100, -59.760
 451.9200, -59.991
 451.9300, -60.180
 451.9400, -59.789
 451.9500, -59.823
 451.9600, -59.719
 451.9700, -59.871
 451.9800, -60.128
 451.9900, -60.709
 452.0000, -61.271
 452.0100, -61.663
 452.0200, -61.630
 452.0300, -61.991
 452.0400, -63.085
 452.0500, -63.707
 452.0600, -63.437
 452.0700, -62.626
 452.0800, -64.252
 452.0900, -64.040
 452.1000, -62.760
 452.1100, -61.959
 452.1200, -61.311
 452.1300, -61.511
 452.1400, -62.217
 452.1500, -61.170
 452.1600, -60.821
 452.1700, -60.553
 452.1800, -60.941
 452.1900, -61.072
 452.2000, -61.308
 452.2100, -62.462
 452.2200, -62.691
 452.2300, -63.832
 452.2400, -63.828
 452.2500, -61.916
 452.2600, -62.709
 452.2700, -63.169
 452.2800, -62.691
 452.2900, -63.894
 452.3000, -63.310
 452.3100, -64.026
 452.3200, -63.608
 452.3300, -64.055
 452.3400, -64.824
 452.3500, -64.815
 452.3600, -63.110
 452.3700, -65.136
 452.3800, -65.902
 452.3900, -65.699
 452.4000, -65.734
 452.4100, -64.968
 452.4200, -66.958
 452.4300, -65.255
 452.4400, -66.257
 452.4500, -66.629
 452.4600, -65.987
 452.4700, -65.270
 452.4800, -65.812
 452.4900, -65.279
 452.5000, -64.486
 452.5100, -64.744
 452.5200, -64.120
 452.5300, -64.038
 452.5400, -63.382
 452.5500, -63.427
 452.5600, -63.403
 452.5700, -63.758
 452.5800, -63.277
 452.5900, -63.026
 452.6000, -62.321
 452.6100, -61.780
 452.6200, -62.273
 452.6300, -61.615
 452.6400, -61.581
 452.6500, -61.050
 452.6600, -60.587
 452.6700, -60.143
 452.6800, -60.176
 452.6900, -60.442
 452.7000, -59.977
 452.7100, -59.620
 452.7200, -59.417
 452.7300, -59.376
 452.7400, -59.019
 452.7500, -59.000
 452.7600, -58.670
 452.7700, -58.378
 452.7800, -58.598
 452.7900, -58.502
 452.8000, -58.261
 452.8100, -58.032
 452.8200, -57.871
 452.8300, -57.532
 452.8400, -57.329
 452.8500, -57.471
 452.8600, -57.419
 452.8700, -57.378
 452.8800, -57.032
 452.8900, -57.346
 452.9000, -57.273
 452.9100, -57.291
 452.9200, -57.386
 452.9300, -57.585
 452.9400, -57.843
 452.9500, -57.708
 452.9600, -57.821
 452.9700, -58.157
 452.9800, -58.582
 452.9900, -58.477
 453.0000, -59.105
 453.0100, -59.457
 453.0200, -59.535
 453.0300, -60.206
 453.0400, -60.388
 453.0500, -61.693
 453.0600, -61.905
 453.0700, -61.784
 453.0800, -62.313
 453.0900, -63.753
 453.1000, -62.993
 453.1100, -62.790
 453.1200, -62.810
 453.1300, -62.276
 453.1400, -62.452
 453.1500, -62.423
 453.1600, -62.506
 453.1700, -63.159
 453.1800, -62.205
 453.1900, -62.632
 453.2000, -62.618
 453.2100, -62.648
 453.2200, -62.637
 453.2300, -62.346
 453.2400, -62.676
 453.2500, -62.018
 453.2600, -61.243
 453.2700, -61.182
 453.2800, -61.018
 453.2900, -61.280
 453.3000, -61.506
 453.3100, -61.300
 453.3200, -60.759
 453.3300, -60.663
 453.3400, -60.591
 453.3500, -60.247
 453.3600, -60.875
 453.3700, -60.849
 453.3800, -60.509
 453.3900, -60.195
 453.4000, -60.408
 453.4100, -60.024
 453.4200, -59.922
 453.4300, -60.030
 453.4400, -59.534
 453.4500, -59.474
 453.4600, -59.101
 453.4700, -58.778
 453.4800, -58.933
 453.4900, -58.898
 453.5000, -58.693
 453.5100, -58.733
 453.5200, -58.407
 453.5300, -58.099
 453.5400, -58.239
 453.5500, -58.350
 453.5600, -58.318
 453.5700, -57.774
 453.5800, -57.571
 453.5900, -57.428
 453.6000, -57.344
 453.6100, -57.483
 453.6200, -57.285
 453.6300, -56.917
 453.6400, -56.780
 453.6500, -56.694
 453.6600, -56.425
 453.6700, -56.552
 453.6800, -56.449
 453.6900, -56.175
 453.7000, -56.216
 453.7100, -56.026
 453.7200, -55.941
 453.7300, -55.878
 453.7400, -55.904
 453.7500, -55.972
 453.7600, -56.021
 453.7700, -55.810
 453.7800, -55.596
 453.7900, -55.753
 453.8000, -56.119
 453.8100, -56.085
 453.8200, -55.982
 453.8300, -55.846
 453.8400, -55.744
 453.8500, -55.850
 453.8600, -55.847
 453.8700, -55.990
 453.8800, -56.058
 453.8900, -55.853
 453.9000, -55.896
 453.9100, -56.200
 453.9200, -56.131
 453.9300, -56.242
 453.9400, -56.250
 453.9500, -56.037
 453.9600, -56.265
 453.9700, -56.045
 453.9800, -56.011
 453.9900, -56.173
 454.0000, -56.245
 454.0100, -56.208
 454.0200, -55.950
 454.0300, -56.001
 454.0400, -56.079
 454.0500, -56.236
 454.0600, -56.293
 454.0700, -56.316
 454.0800, -56.322
 454.0900, -56.327
 454.1000, -56.346
 454.1100, -56.602
 454.1200, -56.706
 454.1300, -56.655
 454.1400, -56.562
 454.1500, -56.719
 454.1600, -56.800
 454.1700, -56.444
 454.1800, -56.596
 454.1900, -56.511
 454.2000, -56.568
 454.2100, -56.637
 454.2200, -56.435
 454.2300, -56.613
 454.2400, -56.786
 454.2500, -56.986
 454.2600, -56.935
 454.2700, -57.333
 454.2800, -57.269
 454.2900, -57.378
 454.3000, -57.468
 454.3100, -57.259
 454.3200, -57.320
 454.3300, -57.384
 454.3400, -57.151
 454.3500, -57.107
 454.3600, -56.856
 454.3700, -57.357
 454.3800, -56.925
 454.3900, -56.940
 454.4000, -57.712
 454.4100, -57.737
 454.4200, -57.824
 454.4300, -57.844
 454.4400, -57.445
 454.4500, -58.183
 454.4600, -58.304
 454.4700, -58.454
 454.4800, -58.523
 454.4900, -58.704
 454.5000, -59.193
 454.5100, -58.853
 454.5200, -59.133
 454.5300, -59.354
 454.5400, -59.305
 454.5500, -59.279
 454.5600, -59.296
 454.5700, -59.123
 454.5800, -59.538
 454.5900, -59.370
 454.6000, -59.861
 454.6100, -59.790
 454.6200, -59.672
 454.6300, -60.096
 454.6400, -60.380
 454.6500, -60.567
 454.6600, -60.856
 454.6700, -61.058
 454.6800, -60.745
 454.6900, -61.190
 454.7000, -61.570
 454.7100, -61.578
 454.7200, -62.192
 454.7300, -62.946
 454.7400, -63.522
 454.7500, -64.500
 454.7600, -64.938
 454.7700, -64.769
 454.7800, -65.628
 454.7900, -67.392
 454.8000, -67.638
 454.8100, -66.711
 454.8200, -67.198
 454.8300, -69.591
 454.8400, -68.561
 454.8500, -75.894
 454.8600, -74.290
 454.8700, -74.015
 454.8800, -79.903
 454.8900,-210.000
 454.9000, -70.486
 454.9100,-210.000
 454.9200, -71.437
 454.9300, -73.482
 454.9400, -82.281
 454.9500,-210.000
 454.9600, -70.699
 454.9700, -77.362
 454.9800, -69.834
 454.9900, -71.470
 455.0000, -76.095
 455.0100,-210.000
 455.0200,-210.000
 455.0300,-210.000
 455.0400, -70.858
 455.0500, -76.648
 455.0600, -70.012
 455.0700, -69.949
 455.0800, -72.941
 455.0900,-210.000
 455.1000, -83.651
 455.1100, -72.697
 455.1200, -72.772
 455.1300, -70.855
 455.1400, -73.809
 455.1500,-210.000
 455.1600, -77.481
 455.1700, -71.132
 455.1800, -70.251
 455.1900, -79.600
 455.2000, -78.552
 455.2100, -73.455
 455.2200, -74.509
 455.2300,-210.000
 455.2400, -79.121
 455.2500, -78.906
 455.2600, -76.129
 455.2700, -78.041
 455.2800,-210.000
 455.2900, -76.220
 455.3000,-210.000
 455.3100, -68.194
 455.3200, -89.592
 455.3300,-210.000
 455.3400, -78.726
 455.3500,-210.000
 455.3600, -87.410
 455.3700,-210.000
 455.3800,-210.000
 455.3900, -76.862
 455.4000, -74.334
 455.4100, -72.508
 455.4200,-210.000
 455.4300, -70.968
 455.4400, -72.279
 455.4500,-210.000
 455.4600, -72.274
 455.4700,-210.000
 455.4800, -70.103
 455.4900,-210.000
 455.5000,-210.000
 455.5100, -71.036
 455.5200, -80.687
 455.5300, -73.591
 455.5400, -71.392
 455.5500, -72.217
 455.5600,-210.000
 455.5700, -83.821
 455.5800,-210.000
 455.5900,-210.000
 455.6000, -77.399
 455.6100,-210.000
 455.6200,-210.000
 455.6300, -87.342
 455.6400,-210.000
 455.6500, -75.443
 455.6600,-210.000
 455.6700, -76.587
 455.6800, -69.672
 455.6900,-210.000
 455.7000, -73.560
 455.7100,-210.000
 455.7200, -72.580
 455.7300, -77.255
 455.7400,-210.000
 455.7500,-210.000
 455.7600,-210.000
 455.7700, -72.348
 455.7800, -73.401
 455.7900, -72.672
 455.8000, -83.722
 455.8100, -77.466
 455.8200,-210.000
 455.8300, -80.272
 455.8400, -77.169
 455.8500, -74.120
 455.8600, -74.321
 455.8700, -69.714
 455.8800, -71.248
 455.8900, -69.148
 455.9000,-210.000
 455.9100, -75.678
 455.9200, -72.230
 455.9300,-210.000
 455.9400,-210.000
 455.9500, -71.236
 455.9600, -77.930
 455.9700, -86.027
 455.9800, -74.482
 455.9900, -72.472
 456.0000, -74.348
 456.0100,-210.000
 456.0200, -78.831
 456.0300, -78.904
 456.0400, -74.996
 456.0500,-210.000
 456.0600,-210.000
 456.0700, -78.255
 456.0800, -73.811
 456.0900, -74.347
 456.1000, -78.954
 456.1100,-210.000
 456.1200, -84.036
 456.1300, -73.083
 456.1400, -81.547
 456.1500, -75.887
 456.1600, -71.148
 456.1700,-102.836
 456.1800,-210.000
 456.1900, -72.773
 456.2000, -72.508
 456.2100, -83.903
 456.2200,-210.000
 456.2300,-210.000
 456.2400, -71.806
 456.2500, -72.989
 456.2600,-210.000
 456.2700, -73.889
 456.2800, -72.835
 456.2900,-210.000
 456.3000, -78.733
 456.3100, -70.683
 456.3200, -71.531
 456.3300, -71.513
 456.3400, -71.778
 456.3500,-210.000
 456.3600, -77.075
 456.3700,-210.000
 456.3800, -72.975
 456.3900, -75.273
 456.4000,-210.000
 456.4100, -70.454
 456.4200, -78.505
 456.4300,-210.000
 456.4400, -72.640
 456.4500, -70.322
 456.4600, -74.946
 456.4700, -77.704
 456.4800, -74.394
 456.4900, -73.660
 456.5000, -81.005
 456.5100,-210.000
 456.5200, -78.870
 456.5300, -76.008
 456.5400,-210.000
 456.5500,-210.000
 456.5600, -76.624
 456.5700, -74.176
 456.5800,-210.000
 456.5900, -79.080
 456.6000,-210.000
 456.6100, -92.879
 456.6200, -72.846
 456.6300, -72.860
 456.6400, -78.710
 456.6500, -73.070
 456.6600, -71.212
 456.6700, -72.569
 456.6800, -76.131
 456.6900, -87.863
 456.7000, -77.030
 456.7100, -73.294
 456.7200, -72.167
 456.7300,-210.000
 456.7400,-210.000
 456.7500, -75.431
 456.7600, -76.231
 456.7700, -72.009
 456.7800, -73.295
 456.7900, -80.918
 456.8000, -79.142
 456.8100, -71.864
 456.8200,-210.000
 456.8300, -87.389
 456.8400,-210.000
 456.8500, -83.554
 456.8600, -72.041
 456.8700,-210.000
 456.8800,-210.000
 456.8900, -77.369
 456.9000, -72.885
 456.9100, -71.423
 456.9200, -81.263
 456.9300, -74.315
 456.9400, -73.258
 456.9500,-210.000
 456.9600, -76.305
 456.9700,-210.000
 456.9800, -72.603
 456.9900, -74.431
 457.0000, -72.961
 457.0100, -73.070
 457.0200,-210.000
 457.0300,-210.000
 457.0400, -70.800
 457.0500, -72.937
 457.0600, -83.066
 457.0700, -76.545
 457.0800, -74.692
 457.0900,-210.000
 457.1000, -76.037
 457.1100, -74.155
 457.1200, -77.337
 457.1300, -70.714
 457.1400, -74.070
 457.1500, -79.017
 457.1600,-210.000
 457.1700, -70.876
 457.1800, -77.101
 457.1900, -76.646
 457.2000, -75.189
 457.2100, -75.518
 457.2200,-210.000
 457.2300,-210.000
 457.2400, -73.122
 457.2500, -72.246
 457.2600, -74.043
 457.2700, -79.856
 457.2800, -81.279
 457.2900, -83.111
 457.3000, -71.777
 457.3100,-210.000
 457.3200,-210.000
 457.3300,-210.000
 457.3400, -76.445
 457.3500, -68.375
 457.3600, -71.104
 457.3700, -75.336
 457.3800, -74.121
 457.3900,-210.000
 457.4000, -79.095
 457.4100, -73.371
 457.4200, -77.051
 457.4300,-210.000
 457.4400, -79.155
 457.4500, -72.921
 457.4600, -74.973
 457.4700, -81.014
 457.4800,-210.000
 457.4900, -71.164
 457.5000, -76.965
 457.5100, -74.417
 457.5200, -79.073
 457.5300,-210.000
 457.5400, -73.297
 457.5500,-210.000
 457.5600, -76.099
 457.5700, -82.697
 457.5800, -72.685
 457.5900,-210.000
 457.6000,-210.000
 457.6100,-210.000
 457.6200, -72.730
 457.6300, -74.678
 457.6400, -70.795
 457.6500, -74.831
 457.6600, -79.207
 457.6700, -82.379
 457.6800, -80.088
 457.6900, -76.971
 457.7000,-210.000
 457.7100, -76.631
 457.7200, -75.311
 457.7300, -72.788
 457.7400, -73.851
 457.7500, -74.221
 457.7600, -86.903
 457.7700, -76.437
 457.7800, -73.591
 457.7900, -77.149
 457.8000, -77.038
 457.8100, -75.228
 457.8200, -79.042
 457.8300, -77.743
 457.8400, -71.788
 457.8500,-210.000
 457.8600,-210.000
 457.8700, -74.561
 457.8800,-210.000
 457.8900, -85.753
 457.9000, -75.089
 457.9100, -87.051
 457.9200,-210.000
 457.9300, -74.189
 457.9400, -80.483
 457.9500, -74.847
 457.9600, -71.188
 457.9700,-210.000
 457.9800,-210.000
 457.9900, -79.888
 458.0000, -79.323
 458.0100, -76.675
 458.0200, -77.470
 458.0300,-210.000
 458.0400, -90.215
 458.0500, -71.719
 458.0600, -73.554
 458.0700, -89.129
 458.0800, -76.949
 458.0900,-210.000
 458.1000,-210.000
 458.1100, -80.798
 458.1200,-210.000
 458.1300, -91.109
 458.1400,-210.000
 458.1500,-210.000
 458.1600,-210.000
 458.1700, -75.349
 458.1800, -73.932
 458.1900, -70.674
 458.2000, -70.550
 458.2100,-210.000
 458.2200,-210.000
 458.2300,-210.000
 458.2400,-210.000
 458.2500, -74.011
 458.2600, -81.996
 458.2700, -74.565
 458.2800, -71.344
 458.2900,-210.000
 458.3000, -76.032
 458.3100, -76.292
 458.3200, -71.571
 458.3300, -71.282
 458.3400, -74.034
 458.3500,-210.000
 458.3600, -73.236
 458.3700, -73.552
 458.3800, -75.662
 458.3900, -76.022
 458.4000, -75.209
 458.4100, -71.854
 458.4200, -91.034
 458.4300, -72.584
 458.4400, -73.346
 458.4500,-210.000
 458.4600,-210.000
 458.4700,-210.000
 458.4800, -77.947
 458.4900, -75.524
 458.5000,-210.000
 458.5100, -81.503
 458.5200, -74.276
 458.5300,-210.000
 458.5400, -74.433
 458.5500, -77.658
 458.5600, -75.813
 458.5700, -78.581
 458.5800,-210.000
 458.5900, -73.251
 458.6000, -70.234
 458.6100, -71.128
 458.6200,-210.000
 458.6300,-210.000
 458.6400, -71.400
 458.6500, -71.425
 458.6600, -78.180
 458.6700, -70.379
 458.6800, -71.681
 458.6900, -80.406
 458.7000, -82.019
 458.7100, -75.433
 458.7200, -83.801
 458.7300,-210.000
 458.7400, -70.879
 458.7500, -73.740
 458.7600,-210.000
 458.7700, -78.721
 458.7800, -73.007
 458.7900, -75.757
 458.8000, -77.791
 458.8100,-210.000
 458.8200, -73.069
 458.8300,-210.000
 458.8400, -74.867
 458.8500, -70.085
 458.8600, -73.579
 458.8700, -73.358
 458.8800, -81.505
 458.8900, -72.031
 458.9000,-210.000
 458.9100, -77.635
 458.9200,-210.000
 458.9300,-210.000
 458.9400, -73.692
 458.9500,-210.000
 458.9600, -75.275
 458.9700, -73.851
 458.9800, -71.794
 458.9900,-210.000
 459.0000,-210.000
 459.0100,-210.000
 459.0200, -77.919
 459.0300, -71.409
 459.0400, -84.448
 459.0500,-210.000
 459.0600, -80.205
 459.0700, -72.756
 459.0800, -74.562
 459.0900, -73.090
 459.1000, -75.497
 459.1100, -72.368
 459.1200, -73.344
 459.1300, -72.288
 459.1400, -79.628
 459.1500, -72.121
 459.1600,-210.000
 459.1700, -76.810
 459.1800, -81.888
 459.1900,-210.000
 459.2000, -74.499
 459.2100, -71.969
 459.2200, -73.811
 459.2300, -70.190
 459.2400, -71.137
 459.2500, -77.082
 459.2600, -75.454
 459.2700, -75.907
 459.2800, -76.757
 459.2900, -73.314
 459.3000, -76.358
 459.3100, -73.586
 459.3200,-210.000
 459.3300,-210.000
 459.3400, -75.011
 459.3500, -74.440
 459.3600, -71.554
 459.3700, -78.447
 459.3800, -70.638
 459.3900, -70.876
 459.4000, -75.140
 459.4100,-210.000
 459.4200,-210.000
 459.4300, -70.907
 459.4400, -73.904
 459.4500, -73.954
 459.4600,-210.000
 459.4700, -77.796
 459.4800, -75.003
 459.4900, -72.108
 459.5000, -73.811
 459.5100, -72.395
 459.5200, -80.094
 459.5300,-210.000
 459.5400, -72.948
 459.5500, -76.930
 459.5600, -75.316
 459.5700,-210.000
 459.5800, -74.570
 459.5900, -77.522
 459.6000, -74.088
 459.6100, -77.001
 459.6200,-210.000
 459.6300, -71.435
 459.6400,-210.000
 459.6500, -75.942
 459.6600, -71.430
 459.6700,-210.000
 459.6800, -75.509
 459.6900, -73.104
 459.7000, -79.122
 459.7100,-210.000
 459.7200,-210.000
 459.7300,-210.000
 459.7400, -73.850
 459.7500,-210.000
 459.7600,-210.000
 459.7700, -71.603
 459.7800, -76.987
 459.7900,-210.000
 459.8000, -71.557
 459.8100,-210.000
 459.8200, -73.364
 459.8300,-210.000
 459.8400, -78.219
 459.8500, -75.987
 459.8600,-210.000
 459.8700, -73.901
 459.8800, -72.046
 459.8900, -74.462
 459.9000, -73.059
 459.9100, -69.981
 459.9200,-210.000
 459.9300,-210.000
 459.9400, -72.008
 459.9500, -76.560
 459.9600, -73.974
 459.9700, -91.305
 459.9800, -77.520
 459.9900, -70.648
 460.0000, -71.686
 460.0100, -76.938
 460.0200, -74.150
 460.0300,-210.000
 460.0400,-210.000
 460.0500, -71.748
 460.0600,-210.000
 460.0700, -81.938
 460.0800,-210.000
 460.0900,-210.000
 460.1000,-210.000
 460.1100, -82.885
 460.1200, -76.250
 460.1300, -68.953
 460.1400, -75.526
 460.1500, -77.164
 460.1600, -71.194
 460.1700, -71.401
 460.1800, -72.315
 460.1900, -77.462
 460.2000, -74.216
 460.2100, -71.475
 460.2200,-210.000
 460.2300,-210.000
 460.2400, -72.426
 460.2500, -75.078
 460.2600,-210.000
 460.2700,-210.000
 460.2800, -82.969
 460.2900,-210.000
 460.3000, -76.452
 460.3100,-210.000
 460.3200,-210.000
 460.3300, -73.983
 460.3400, -75.866
 460.3500, -77.714
 460.3600, -70.917
 460.3700, -72.026
 460.3800, -72.911
 460.3900, -74.144
 460.4000, -73.892
 460.4100,-210.000
 460.4200,-210.000
 460.4300, -73.179
 460.4400, -78.750
 460.4500, -72.912
 460.4600,-210.000
 460.4700, -76.106
 460.4800, -70.241
 460.4900, -73.988
 460.5000, -72.035
 460.5100,-210.000
 460.5200,-210.000
 460.5300, -74.332
 460.5400,-210.000
 460.5500, -76.467
 460.5600, -76.576
 460.5700, -81.324
 460.5800, -74.078
 460.5900, -81.230
 460.6000, -90.751
 460.6100, -74.771
 460.6200, -71.192
 460.6300, -78.745
 460.6400, -88.208
 460.6500, -72.595
 460.6600, -73.767
 460.6700,-210.000
 460.6800, -73.350
 460.6900, -74.388
 460.7000,-210.000
 460.7100, -74.323
 460.7200, -69.640
 460.7300, -74.030
 460.7400, -71.327
 460.7500,-210.000
 460.7600,-210.000
 460.7700,-210.000
 460.7800,-210.000
 460.7900, -70.507
 460.8000, -69.582
 460.8100, -73.307
 460.8200,-210.000
 460.8300, -78.158
 460.8400, -76.146
 460.8500, -72.673
 460.8600,-210.000
 460.8700, -70.734
 460.8800,-210.000
 460.8900, -71.398
 460.9000, -76.026
 460.9100, -76.568
 460.9200, -75.393
 460.9300, -74.202
 460.9400, -72.736
 460.9500, -82.110
 460.9600,-210.000
 460.9700, -76.573
 460.9800,-210.000
 460.9900, -72.202
 461.0000, -72.504
 461.0100, -75.099
 461.0200,-210.000
 461.0300, -73.022
 461.0400,-210.000
 461.0500, -85.584
 461.0600,-210.000
 461.0700, -70.033
 461.0800,-210.000
 461.0900, -77.122
 461.1000,-210.000
 461.1100,-210.000
 461.1200,-210.000
 461.1300, -71.186
 461.1400,-210.000
 461.1500, -75.757
 461.1600, -78.167
 461.1700,-210.000
 461.1800, -78.915
 461.1900, -78.415
 461.2000, -80.655
 461.2100, -71.363
 461.2200, -75.861
 461.2300, -75.210
 461.2400, -80.961
 461.2500, -80.599
 461.2600, -72.481
 461.2700,-210.000
 461.2800,-210.000
 461.2900,-210.000
 461.3000,-210.000
 461.3100, -75.641
 461.3200, -73.261
 461.3300, -78.823
 461.3400, -77.106
 461.3500, -78.076
 461.3600,-210.000
 461.3700, -75.473
 461.3800, -76.356
 461.3900, -74.262
 461.4000, -75.193
 461.4100, -76.532
 461.4200, -75.274
 461.4300,-210.000
 461.4400, -80.977
 461.4500, -76.416
 461.4600, -75.550
 461.4700, -71.544
 461.4800, -71.250
 461.4900,-210.000
 461.5000, -77.858
 461.5100,-210.000
 461.5200, -72.064
 461.5300,-210.000
 461.5400, -75.400
 461.5500,-210.000
 461.5600, -76.745
 461.5700,-210.000
 461.5800, -73.322
 461.5900,-210.000
 461.6000, -76.050
 461.6100, -73.156
 461.6200,-210.000
 461.6300, -77.640
 461.6400, -72.996
 461.6500,-210.000
 461.6600,-210.000
 461.6700, -72.989
 461.6800, -71.282
 461.6900,-210.000
 461.7000, -75.161
 461.7100, -76.091
 461.7200,-210.000
 461.7300, -81.896
 461.7400,-210.000
 461.7500, -78.571
 461.7600, -76.401
 461.7700, -73.948
 461.7800, -76.465
 461.7900, -71.544
 461.8000, -79.973
 461.8100,-210.000
 461.8200, -79.398
 461.8300,-210.000
 461.8400, -76.999
 461.8500, -78.634
 461.8600,-210.000
 461.8700, -77.018
 461.8800, -73.059
 461.8900, -74.844
 461.9000,-210.000
 461.9100, -75.652
 461.9200,-210.000
 461.9300,-210.000
 461.9400, -72.210
 461.9500, -71.598
 461.9600, -77.284
 461.9700,-210.000
 461.9800,-210.000
 461.9900, -83.647
 462.0000,-210.000
 462.0100, -74.094
 462.0200, -69.987
 462.0300, -72.492
 462.0400,-210.000
 462.0500, -72.887
 462.0600, -76.586
 462.0700,-210.000
 462.0800, -80.575
 462.0900, -78.650
 462.1000,-210.000
 462.1100, -72.214
 462.1200,-210.000
 462.1300, -77.755
 462.1400, -77.053
 462.1500,-210.000
 462.1600, -84.447
 462.1700,-210.000
 462.1800, -78.514
 462.1900, -74.105
 462.2000, -78.264
 462.2100, -74.364
 462.2200, -77.501
 462.2300, -80.243
 462.2400, -72.618
 462.2500, -76.539
 462.2600, -73.226
 462.2700, -91.711
 462.2800, -77.849
 462.2900, -74.540
 462.3000, -81.074
 462.3100, -73.068
 462.3200, -73.964
 462.3300,-210.000
 462.3400, -80.791
 462.3500,-210.000
 462.3600, -75.886
 462.3700, -74.225
 462.3800, -73.006
 462.3900,-210.000
 462.4000, -72.559
 462.4100,-210.000
 462.4200, -81.907
 462.4300,-210.000
 462.4400,-210.000
 462.4500, -68.917
 462.4600, -74.968
 462.4700, -74.161
 462.4800, -74.314
 462.4900, -74.138
 462.5000,-210.000
 462.5100, -69.708
 462.5200, -74.500
 462.5300, -74.013
 462.5400, -74.660
 462.5500, -75.494
 462.5600, -77.806
 462.5700, -78.033
 462.5800,-210.000
 462.5900, -74.874
 462.6000, -70.952
 462.6100, -82.091
 462.6200,-210.000
 462.6300, -88.189
 462.6400, -74.088
 462.6500,-210.000
 462.6600, -76.892
 462.6700, -79.427
 462.6800, -74.306
 462.6900, -72.854
 462.7000, -77.585
 462.7100, -73.454
 462.7200,-210.000
 462.7300, -76.257
 462.7400, -75.454
 462.7500, -80.474
 462.7600, -79.146
 462.7700,-210.000
 462.7800, -71.064
 462.7900, -74.451
 462.8000, -72.122
 462.8100, -73.820
 462.8200, -77.522
 462.8300,-210.000
 462.8400,-210.000
 462.8500, -74.937
 462.8600, -70.862
 462.8700, -77.150
 462.8800, -73.357
 462.8900, -76.607
 462.9000, -73.442
 462.9100, -73.956
 462.9200, -80.301
 462.9300, -72.740
 462.9400, -78.423
 462.9500, -72.618
 462.9600, -79.614
 462.9700, -76.215
 462.9800, -74.418
 462.9900,-210.000
 463.0000, -82.634
 463.0100, -76.589
 463.0200, -77.268
 463.0300,-210.000
 463.0400,-210.000
 463.0500, -75.790
 463.0600, -82.145
 463.0700, -73.649
 463.0800, -73.313
 463.0900, -74.464
 463.1000, -74.351
 463.1100, -73.210
 463.1200, -76.529
 463.1300,-210.000
 463.1400, -72.810
 463.1500, -77.396
 463.1600, -72.202
 463.1700, -73.224
 463.1800, -73.390
 463.1900, -72.653
 463.2000, -74.610
 463.2100,-210.000
 463.2200, -72.947
 463.2300, -83.004
 463.2400, -72.475
 463.2500,-210.000
 463.2600, -85.869
 463.2700, -77.528
 463.2800,-210.000
 463.2900,-210.000
 463.3000, -78.018
 463.3100, -90.690
 463.3200, -74.037
 463.3300, -71.381
 463.3400,-210.000
 463.3500, -77.801
 463.3600, -70.582
 463.3700, -77.549
 463.3800, -71.138
 463.3900,-210.000
 463.4000,-210.000
 463.4100, -73.635
 463.4200,-210.000
 463.4300, -72.351
 463.4400, -73.459
 463.4500,-210.000
 463.4600, -74.731
 463.4700, -73.275
 463.4800, -70.904
 463.4900,-210.000
 463.5000, -81.329
 463.5100,-210.000
 463.5200, -75.621
 463.5300, -72.914
 463.5400,-210.000
 463.5500,-210.000
 463.5600, -70.701
 463.5700, -72.364
 463.5800, -87.800
 463.5900, -71.679
 463.6000, -77.336
 463.6100, -72.743
 463.6200,-210.000
 463.6300, -88.287
 463.6400, -73.367
 463.6500, -71.178
 463.6600,-210.000
 463.6700, -79.717
 463.6800, -75.415
 463.6900, -74.872
 463.7000, -80.413
 463.7100, -78.903
 463.7200,-210.000
 463.7300, -77.624
 463.7400, -76.708
 463.7500, -80.883
 463.7600, -76.257
 463.7700,-210.000
 463.7800,-210.000
 463.7900, -78.523
 463.8000, -76.447
 463.8100, -77.105
 463.8200, -78.158
 463.8300,-210.000
 463.8400, -73.494
 463.8500, -78.217
 463.8600,-210.000
 463.8700,-210.000
 463.8800, -71.616
 463.8900, -80.647
 463.9000, -71.481
 463.9100, -74.064
 463.9200, -70.604
 463.9300,-210.000
 463.9400,-210.000
 463.9500, -76.241
 463.9600,-210.000
 463.9700, -72.055
 463.9800, -73.163
 463.9900, -73.085
 464.0000, -74.332
 464.0100,-210.000
 464.0200, -73.307
 464.0300, -75.218
 464.0400, -76.554
 464.0500, -71.535
 464.0600, -81.704
 464.0700, -75.309
 464.0800,-210.000
 464.0900, -73.339
 464.1000,-210.000
 464.1100, -74.544
 464.1200, -73.581
 464.1300, -71.090
 464.1400,-210.000
 464.1500,-210.000
 464.1600,-210.000
 464.1700,-210.000
 464.1800, -73.988
 464.1900, -78.369
 464.2000,-210.000
 464.2100, -75.106
 464.2200, -70.661
 464.2300,-210.000
 464.2400, -73.409
 464.2500, -73.158
 464.2600,-210.000
 464.2700, -74.379
 464.2800, -74.565
 464.2900,-210.000
 464.3000, -71.267
 464.3100, -72.617
 464.3200,-210.000
 464.3300, -70.317
 464.3400, -72.298
 464.3500, -80.570
 464.3600,-210.000
 464.3700, -79.534
 464.3800,-210.000
 464.3900, -73.480
 464.4000, -72.874
 464.4100,-210.000
 464.4200, -75.943
 464.4300, -79.305
 464.4400, -81.010
 464.4500, -73.002
 464.4600, -70.768
 464.4700, -74.111
 464.4800,-210.000
 464.4900, -76.851
 464.5000, -71.471
 464.5100, -76.866
 464.5200,-210.000
 464.5300,-210.000
 464.5400,-210.000
 464.5500, -72.131
 464.5600,-210.000
 464.5700, -71.148
 464.5800, -74.196
 464.5900, -83.058
 464.6000, -74.915
 464.6100, -73.026
 464.6200, -72.980
 464.6300, -78.372
 464.6400,-210.000
 464.6500,-210.000
 464.6600,-210.000
 464.6700, -82.532
 464.6800, -73.114
 464.6900, -72.385
 464.7000, -73.183
 464.7100, -73.021
 464.7200, -69.406
 464.7300,-210.000
 464.7400, -77.537
 464.7500, -74.430
 464.7600,-210.000
 464.7700, -73.160
 464.7800, -72.746
 464.7900,-210.000
 464.8000, -73.641
 464.8100, -70.445
 464.8200, -76.786
 464.8300, -74.839
 464.8400,-210.000
 464.8500, -86.243
 464.8600, -74.239
 464.8700, -78.492
 464.8800, -69.881
 464.8900, -73.265
 464.9000, -78.088
 464.9100, -78.841
 464.9200,-210.000
 464.9300, -73.037
 464.9400, -73.302
 464.9500, -85.184
 464.9600,-210.000
 464.9700, -72.106
 464.9800, -74.584
 464.9900,-210.000
 465.0000, -76.666
