73CSV  	
// AQ6373B OPTICAL SPECTRUM ANALYZER //                 
35
"CTRWL", 450.000000
"SPAN",  30.000000
"START WL", 435.000000
"STOP WL", 465.000000
"WLFREQ", 0
"REFL",-50.5
"LSCL",10.0
"RESLN",0.050
"AVG",   1
"SMPLAUTO",      1
"SMPL",       3001
"SMPLINTVL",0.0100
"HIGH1"
"MEAS"
"LSUNT",0
"NMSKH","OFF"
"RESCOR",0
"SMOOTH",0
"MEASWL",0
"SWPSPD",0
"CHGPT",         -1
"RESCAL0_0",       9389
"RESCAL0_1",        538
"RESCAL0_2",    -340913
"RESCAL1_0",       9652
"RESCAL1_1",         64
"RESCAL1_2",     -41039
"CORESIZE", 0







"[TRACE DATA]"
 435.0000, -71.234
 435.0100, -83.507
 435.0200, -71.983
 435.0300,-210.000
 435.0400, -74.933
 435.0500,-210.000
 435.0600,-210.000
 435.0700, -78.820
 435.0800, -73.929
 435.0900, -75.238
 435.1000,-210.000
 435.1100, -72.687
 435.1200, -72.710
 435.1300, -72.364
 435.1400,-210.000
 435.1500, -72.968
 435.1600, -82.035
 435.1700,-210.000
 435.1800, -71.872
 435.1900,-210.000
 435.2000,-210.000
 435.2100,-210.000
 435.2200,-210.000
 435.2300, -71.705
 435.2400, -79.431
 435.2500, -80.569
 435.2600, -74.327
 435.2700, -69.311
 435.2800,-210.000
 435.2900, -73.322
 435.3000, -79.611
 435.3100, -72.993
 435.3200, -74.818
 435.3300, -78.990
 435.3400,-210.000
 435.3500,-210.000
 435.3600, -73.417
 435.3700,-210.000
 435.3800,-210.000
 435.3900, -71.722
 435.4000, -73.679
 435.4100, -72.056
 435.4200, -83.917
 435.4300,-210.000
 435.4400, -71.948
 435.4500,-210.000
 435.4600, -72.637
 435.4700, -71.048
 435.4800, -68.172
 435.4900,-210.000
 435.5000, -74.297
 435.5100,-210.000
 435.5200,-210.000
 435.5300,-210.000
 435.5400,-210.000
 435.5500,-210.000
 435.5600, -77.550
 435.5700, -70.824
 435.5800, -86.253
 435.5900, -75.435
 435.6000, -72.905
 435.6100, -74.795
 435.6200,-210.000
 435.6300, -73.878
 435.6400, -78.104
 435.6500, -71.227
 435.6600,-210.000
 435.6700, -75.467
 435.6800, -71.872
 435.6900, -75.055
 435.7000, -77.481
 435.7100, -72.527
 435.7200, -77.973
 435.7300, -73.979
 435.7400, -76.910
 435.7500, -75.519
 435.7600, -72.107
 435.7700, -72.709
 435.7800, -72.048
 435.7900, -70.567
 435.8000, -73.137
 435.8100,-210.000
 435.8200, -73.678
 435.8300, -70.607
 435.8400, -76.279
 435.8500, -70.167
 435.8600, -72.247
 435.8700, -70.085
 435.8800, -76.465
 435.8900, -69.502
 435.9000, -85.153
 435.9100, -70.213
 435.9200, -69.938
 435.9300, -76.445
 435.9400, -76.859
 435.9500,-210.000
 435.9600,-210.000
 435.9700,-210.000
 435.9800, -76.418
 435.9900, -69.828
 436.0000,-210.000
 436.0100, -81.894
 436.0200, -71.684
 436.0300, -78.071
 436.0400, -79.620
 436.0500, -77.686
 436.0600,-210.000
 436.0700,-210.000
 436.0800, -76.869
 436.0900, -72.322
 436.1000,-210.000
 436.1100, -73.211
 436.1200, -78.120
 436.1300, -77.766
 436.1400,-210.000
 436.1500, -70.588
 436.1600, -73.766
 436.1700, -71.677
 436.1800, -74.283
 436.1900, -74.334
 436.2000, -71.204
 436.2100, -73.029
 436.2200, -86.352
 436.2300,-210.000
 436.2400, -73.118
 436.2500, -82.826
 436.2600, -74.358
 436.2700, -76.872
 436.2800,-210.000
 436.2900, -78.117
 436.3000,-210.000
 436.3100, -73.322
 436.3200, -74.578
 436.3300, -86.085
 436.3400, -95.902
 436.3500, -78.377
 436.3600,-210.000
 436.3700, -72.732
 436.3800, -74.827
 436.3900,-210.000
 436.4000,-210.000
 436.4100,-210.000
 436.4200, -76.400
 436.4300, -73.751
 436.4400, -73.459
 436.4500, -88.881
 436.4600, -74.881
 436.4700, -78.688
 436.4800, -77.532
 436.4900, -78.942
 436.5000, -81.818
 436.5100, -73.788
 436.5200, -75.803
 436.5300, -73.423
 436.5400,-210.000
 436.5500, -72.222
 436.5600, -70.910
 436.5700,-210.000
 436.5800, -77.124
 436.5900, -77.048
 436.6000, -74.399
 436.6100, -70.291
 436.6200, -70.043
 436.6300, -68.830
 436.6400, -74.928
 436.6500,-210.000
 436.6600, -79.100
 436.6700,-210.000
 436.6800,-210.000
 436.6900, -72.909
 436.7000,-210.000
 436.7100, -70.606
 436.7200, -78.776
 436.7300,-210.000
 436.7400, -70.919
 436.7500, -70.699
 436.7600, -72.719
 436.7700, -69.905
 436.7800, -73.553
 436.7900,-210.000
 436.8000, -72.030
 436.8100, -73.179
 436.8200, -73.448
 436.8300, -74.398
 436.8400, -72.134
 436.8500, -69.458
 436.8600,-210.000
 436.8700, -77.864
 436.8800,-210.000
 436.8900, -71.907
 436.9000,-210.000
 436.9100,-210.000
 436.9200, -78.033
 436.9300, -76.635
 436.9400, -71.684
 436.9500, -72.116
 436.9600, -72.497
 436.9700, -72.431
 436.9800,-210.000
 436.9900, -74.320
 437.0000, -70.195
 437.0100, -70.200
 437.0200,-210.000
 437.0300, -74.909
 437.0400, -79.111
 437.0500, -72.623
 437.0600, -69.694
 437.0700, -73.775
 437.0800, -79.875
 437.0900, -72.960
 437.1000, -70.652
 437.1100, -71.605
 437.1200, -76.876
 437.1300,-210.000
 437.1400, -70.849
 437.1500, -86.822
 437.1600,-210.000
 437.1700, -84.642
 437.1800, -72.662
 437.1900, -74.758
 437.2000, -85.229
 437.2100, -76.917
 437.2200, -75.255
 437.2300, -72.854
 437.2400,-210.000
 437.2500, -71.765
 437.2600, -77.067
 437.2700, -70.320
 437.2800, -73.645
 437.2900, -70.039
 437.3000, -73.887
 437.3100, -72.012
 437.3200, -72.986
 437.3300, -77.959
 437.3400, -70.142
 437.3500, -74.263
 437.3600, -73.805
 437.3700,-210.000
 437.3800, -73.637
 437.3900, -79.146
 437.4000, -80.623
 437.4100, -70.320
 437.4200, -74.714
 437.4300, -70.510
 437.4400, -72.114
 437.4500, -73.018
 437.4600, -72.336
 437.4700,-210.000
 437.4800,-210.000
 437.4900, -71.509
 437.5000, -70.808
 437.5100, -78.287
 437.5200, -75.309
 437.5300,-210.000
 437.5400, -72.505
 437.5500, -75.633
 437.5600,-210.000
 437.5700, -73.924
 437.5800, -73.626
 437.5900, -73.253
 437.6000,-210.000
 437.6100, -72.146
 437.6200, -72.439
 437.6300, -74.302
 437.6400, -78.600
 437.6500,-210.000
 437.6600, -81.320
 437.6700, -80.664
 437.6800, -74.540
 437.6900, -76.339
 437.7000, -72.466
 437.7100, -70.665
 437.7200, -69.464
 437.7300, -70.232
 437.7400, -73.829
 437.7500,-210.000
 437.7600, -70.888
 437.7700, -70.231
 437.7800, -72.491
 437.7900,-210.000
 437.8000, -69.750
 437.8100, -79.005
 437.8200, -74.998
 437.8300, -73.961
 437.8400, -70.374
 437.8500, -69.026
 437.8600, -78.399
 437.8700,-210.000
 437.8800, -74.925
 437.8900, -80.048
 437.9000,-210.000
 437.9100, -82.832
 437.9200,-210.000
 437.9300,-210.000
 437.9400, -87.036
 437.9500, -72.898
 437.9600,-210.000
 437.9700,-210.000
 437.9800, -75.669
 437.9900, -71.521
 438.0000,-210.000
 438.0100, -84.098
 438.0200, -74.269
 438.0300, -71.617
 438.0400, -75.465
 438.0500, -73.931
 438.0600, -73.944
 438.0700, -74.160
 438.0800, -79.533
 438.0900, -75.075
 438.1000, -78.890
 438.1100, -71.068
 438.1200, -74.339
 438.1300, -72.954
 438.1400, -72.325
 438.1500, -75.866
 438.1600, -77.703
 438.1700, -74.108
 438.1800,-210.000
 438.1900, -68.809
 438.2000, -73.654
 438.2100,-210.000
 438.2200,-210.000
 438.2300,-210.000
 438.2400, -77.471
 438.2500, -77.325
 438.2600, -80.096
 438.2700, -70.000
 438.2800, -71.735
 438.2900, -75.938
 438.3000, -77.482
 438.3100, -69.078
 438.3200,-210.000
 438.3300, -74.548
 438.3400,-210.000
 438.3500,-210.000
 438.3600, -71.178
 438.3700, -69.887
 438.3800,-210.000
 438.3900, -91.194
 438.4000, -87.449
 438.4100, -73.056
 438.4200, -71.669
 438.4300, -73.690
 438.4400, -73.917
 438.4500,-210.000
 438.4600, -78.065
 438.4700, -76.662
 438.4800, -77.298
 438.4900,-210.000
 438.5000, -69.552
 438.5100, -70.974
 438.5200, -73.515
 438.5300, -73.434
 438.5400,-210.000
 438.5500,-210.000
 438.5600, -69.788
 438.5700, -71.583
 438.5800, -72.781
 438.5900,-210.000
 438.6000, -85.571
 438.6100,-210.000
 438.6200,-210.000
 438.6300,-210.000
 438.6400,-210.000
 438.6500,-210.000
 438.6600, -76.434
 438.6700,-210.000
 438.6800,-210.000
 438.6900,-210.000
 438.7000, -71.782
 438.7100, -72.209
 438.7200,-210.000
 438.7300, -76.366
 438.7400, -72.804
 438.7500, -72.109
 438.7600,-210.000
 438.7700,-210.000
 438.7800,-210.000
 438.7900, -71.894
 438.8000, -72.267
 438.8100, -79.937
 438.8200, -81.107
 438.8300, -72.967
 438.8400, -73.114
 438.8500, -70.047
 438.8600,-210.000
 438.8700,-210.000
 438.8800, -97.912
 438.8900, -75.521
 438.9000,-210.000
 438.9100,-210.000
 438.9200, -77.038
 438.9300,-210.000
 438.9400, -73.788
 438.9500, -74.341
 438.9600, -72.440
 438.9700, -72.729
 438.9800, -76.906
 438.9900, -73.258
 439.0000, -79.691
 439.0100, -72.816
 439.0200, -78.105
 439.0300, -71.079
 439.0400,-210.000
 439.0500,-210.000
 439.0600, -75.586
 439.0700,-210.000
 439.0800, -71.408
 439.0900,-210.000
 439.1000, -68.719
 439.1100, -85.701
 439.1200,-210.000
 439.1300, -76.501
 439.1400,-210.000
 439.1500, -79.173
 439.1600, -71.820
 439.1700, -71.529
 439.1800,-210.000
 439.1900, -72.794
 439.2000,-210.000
 439.2100, -70.912
 439.2200, -81.746
 439.2300, -83.208
 439.2400, -74.427
 439.2500, -73.504
 439.2600, -80.755
 439.2700,-210.000
 439.2800, -74.188
 439.2900, -72.432
 439.3000, -70.387
 439.3100, -75.477
 439.3200, -75.090
 439.3300, -73.352
 439.3400, -73.337
 439.3500, -75.672
 439.3600, -73.327
 439.3700,-210.000
 439.3800, -70.557
 439.3900,-210.000
 439.4000, -71.801
 439.4100, -77.022
 439.4200, -84.355
 439.4300, -70.933
 439.4400, -69.045
 439.4500,-210.000
 439.4600,-210.000
 439.4700,-210.000
 439.4800, -69.747
 439.4900, -79.900
 439.5000,-210.000
 439.5100,-210.000
 439.5200, -69.638
 439.5300, -73.391
 439.5400, -70.703
 439.5500, -77.560
 439.5600,-210.000
 439.5700,-210.000
 439.5800,-210.000
 439.5900, -73.690
 439.6000, -75.602
 439.6100, -78.877
 439.6200, -71.666
 439.6300, -94.113
 439.6400, -70.849
 439.6500, -74.868
 439.6600,-210.000
 439.6700, -72.511
 439.6800, -76.103
 439.6900, -68.193
 439.7000,-210.000
 439.7100, -74.274
 439.7200, -71.428
 439.7300, -73.199
 439.7400, -74.966
 439.7500,-210.000
 439.7600, -72.615
 439.7700, -70.195
 439.7800, -79.468
 439.7900, -85.171
 439.8000,-210.000
 439.8100,-210.000
 439.8200, -76.107
 439.8300,-210.000
 439.8400,-210.000
 439.8500, -71.543
 439.8600,-210.000
 439.8700, -74.310
 439.8800, -72.558
 439.8900, -75.420
 439.9000, -86.273
 439.9100, -77.955
 439.9200, -77.254
 439.9300,-210.000
 439.9400,-210.000
 439.9500, -74.153
 439.9600, -79.279
 439.9700, -74.857
 439.9800, -77.443
 439.9900,-210.000
 440.0000, -78.163
 440.0100, -71.532
 440.0200, -72.072
 440.0300, -80.465
 440.0400,-210.000
 440.0500, -76.709
 440.0600, -71.909
 440.0700, -84.462
 440.0800, -71.233
 440.0900,-210.000
 440.1000, -76.760
 440.1100, -70.878
 440.1200, -70.781
 440.1300,-210.000
 440.1400,-210.000
 440.1500, -84.833
 440.1600, -73.183
 440.1700,-210.000
 440.1800, -71.311
 440.1900, -75.384
 440.2000,-210.000
 440.2100, -74.535
 440.2200, -70.992
 440.2300, -76.279
 440.2400, -77.185
 440.2500, -70.369
 440.2600, -71.911
 440.2700, -72.606
 440.2800,-210.000
 440.2900, -73.606
 440.3000, -70.972
 440.3100, -72.518
 440.3200, -75.244
 440.3300, -70.573
 440.3400, -73.762
 440.3500, -76.159
 440.3600, -76.298
 440.3700, -72.603
 440.3800, -90.632
 440.3900, -88.605
 440.4000, -69.158
 440.4100,-210.000
 440.4200, -70.113
 440.4300, -77.666
 440.4400, -77.527
 440.4500, -75.648
 440.4600, -71.938
 440.4700, -72.025
 440.4800, -75.368
 440.4900, -70.082
 440.5000, -72.702
 440.5100, -80.565
 440.5200, -71.313
 440.5300, -84.174
 440.5400, -72.594
 440.5500, -82.198
 440.5600, -75.227
 440.5700,-210.000
 440.5800, -73.083
 440.5900,-210.000
 440.6000, -69.716
 440.6100,-210.000
 440.6200, -73.852
 440.6300,-210.000
 440.6400, -73.137
 440.6500,-210.000
 440.6600, -75.553
 440.6700, -69.045
 440.6800,-210.000
 440.6900, -71.794
 440.7000, -73.931
 440.7100, -78.746
 440.7200, -70.191
 440.7300, -71.930
 440.7400, -69.624
 440.7500, -71.564
 440.7600,-210.000
 440.7700, -73.828
 440.7800, -81.851
 440.7900, -72.770
 440.8000, -78.468
 440.8100, -73.122
 440.8200, -76.912
 440.8300, -71.822
 440.8400, -71.214
 440.8500, -71.969
 440.8600, -83.316
 440.8700,-210.000
 440.8800, -72.996
 440.8900, -72.412
 440.9000, -71.859
 440.9100, -73.035
 440.9200,-210.000
 440.9300, -74.719
 440.9400, -73.286
 440.9500,-210.000
 440.9600,-210.000
 440.9700,-210.000
 440.9800,-210.000
 440.9900, -71.311
 441.0000, -71.540
 441.0100, -75.706
 441.0200, -76.474
 441.0300,-210.000
 441.0400, -74.438
 441.0500, -80.945
 441.0600, -74.229
 441.0700, -69.680
 441.0800, -71.743
 441.0900, -75.835
 441.1000,-210.000
 441.1100, -70.893
 441.1200, -72.480
 441.1300, -75.356
 441.1400, -72.717
 441.1500, -72.503
 441.1600,-210.000
 441.1700,-210.000
 441.1800, -75.541
 441.1900,-210.000
 441.2000, -74.464
 441.2100, -69.343
 441.2200,-210.000
 441.2300, -68.771
 441.2400, -88.114
 441.2500, -77.376
 441.2600,-210.000
 441.2700, -72.640
 441.2800, -74.850
 441.2900, -78.103
 441.3000, -88.884
 441.3100, -74.413
 441.3200, -73.751
 441.3300, -74.984
 441.3400, -70.410
 441.3500, -78.897
 441.3600, -75.485
 441.3700, -75.476
 441.3800,-210.000
 441.3900, -71.726
 441.4000, -78.391
 441.4100, -70.411
 441.4200, -71.754
 441.4300,-210.000
 441.4400, -79.524
 441.4500, -73.951
 441.4600, -75.085
 441.4700, -68.796
 441.4800,-210.000
 441.4900, -77.894
 441.5000, -78.444
 441.5100, -78.141
 441.5200, -71.838
 441.5300, -70.595
 441.5400, -78.271
 441.5500,-210.000
 441.5600, -73.787
 441.5700, -71.249
 441.5800, -72.259
 441.5900, -73.743
 441.6000,-210.000
 441.6100, -76.854
 441.6200, -72.535
 441.6300, -73.520
 441.6400, -71.059
 441.6500,-210.000
 441.6600, -73.146
 441.6700, -70.325
 441.6800, -75.943
 441.6900,-210.000
 441.7000, -71.902
 441.7100,-210.000
 441.7200, -75.010
 441.7300, -72.205
 441.7400, -74.640
 441.7500, -73.601
 441.7600,-210.000
 441.7700, -73.512
 441.7800, -72.245
 441.7900,-210.000
 441.8000, -71.938
 441.8100, -71.297
 441.8200, -71.764
 441.8300, -73.997
 441.8400, -74.657
 441.8500,-210.000
 441.8600, -69.759
 441.8700, -73.180
 441.8800, -69.920
 441.8900,-210.000
 441.9000, -70.872
 441.9100,-210.000
 441.9200,-210.000
 441.9300,-210.000
 441.9400, -70.596
 441.9500, -73.665
 441.9600, -78.488
 441.9700,-210.000
 441.9800, -76.862
 441.9900, -77.198
 442.0000,-210.000
 442.0100,-210.000
 442.0200,-210.000
 442.0300,-210.000
 442.0400,-210.000
 442.0500, -73.031
 442.0600,-210.000
 442.0700,-210.000
 442.0800, -77.861
 442.0900, -76.648
 442.1000, -71.185
 442.1100, -71.463
 442.1200, -71.027
 442.1300, -83.754
 442.1400,-210.000
 442.1500, -71.778
 442.1600,-210.000
 442.1700, -69.935
 442.1800, -74.119
 442.1900, -76.607
 442.2000, -82.267
 442.2100, -73.151
 442.2200, -71.595
 442.2300, -73.234
 442.2400, -72.325
 442.2500, -71.733
 442.2600,-210.000
 442.2700, -77.715
 442.2800, -71.312
 442.2900,-210.000
 442.3000, -79.255
 442.3100,-210.000
 442.3200, -69.360
 442.3300,-210.000
 442.3400, -72.946
 442.3500,-210.000
 442.3600, -72.463
 442.3700, -71.178
 442.3800, -71.826
 442.3900, -81.563
 442.4000, -75.373
 442.4100, -80.245
 442.4200, -77.796
 442.4300, -74.981
 442.4400, -71.847
 442.4500, -74.786
 442.4600, -72.850
 442.4700, -74.813
 442.4800,-210.000
 442.4900, -90.111
 442.5000,-210.000
 442.5100, -73.052
 442.5200,-210.000
 442.5300, -77.722
 442.5400, -72.208
 442.5500, -75.243
 442.5600, -91.746
 442.5700, -81.271
 442.5800, -77.307
 442.5900, -73.063
 442.6000, -78.750
 442.6100, -69.951
 442.6200, -72.855
 442.6300,-210.000
 442.6400, -73.072
 442.6500, -82.672
 442.6600, -77.430
 442.6700, -72.625
 442.6800, -72.800
 442.6900, -74.591
 442.7000, -75.842
 442.7100,-210.000
 442.7200,-210.000
 442.7300, -75.430
 442.7400, -73.132
 442.7500, -72.968
 442.7600,-210.000
 442.7700, -81.181
 442.7800, -87.237
 442.7900, -70.930
 442.8000,-210.000
 442.8100, -70.721
 442.8200, -70.735
 442.8300,-210.000
 442.8400, -78.014
 442.8500, -76.699
 442.8600,-210.000
 442.8700, -71.194
 442.8800, -74.527
 442.8900,-210.000
 442.9000, -76.306
 442.9100, -79.902
 442.9200,-210.000
 442.9300, -70.085
 442.9400, -74.574
 442.9500, -72.639
 442.9600, -74.879
 442.9700, -76.061
 442.9800,-210.000
 442.9900, -70.975
 443.0000, -80.031
 443.0100, -78.536
 443.0200,-210.000
 443.0300, -71.235
 443.0400, -70.574
 443.0500, -73.059
 443.0600, -70.732
 443.0700, -75.378
 443.0800, -77.696
 443.0900, -73.203
 443.1000,-210.000
 443.1100, -72.037
 443.1200, -73.174
 443.1300, -75.355
 443.1400,-210.000
 443.1500,-210.000
 443.1600, -70.621
 443.1700,-210.000
 443.1800, -75.284
 443.1900, -72.444
 443.2000,-210.000
 443.2100,-210.000
 443.2200, -76.399
 443.2300, -83.522
 443.2400,-210.000
 443.2500,-210.000
 443.2600,-210.000
 443.2700,-210.000
 443.2800, -74.691
 443.2900, -72.888
 443.3000, -69.859
 443.3100, -72.501
 443.3200, -78.251
 443.3300, -69.626
 443.3400, -80.054
 443.3500, -72.611
 443.3600, -73.717
 443.3700, -84.508
 443.3800,-210.000
 443.3900,-210.000
 443.4000, -83.959
 443.4100, -84.375
 443.4200, -72.086
 443.4300, -70.061
 443.4400, -69.456
 443.4500, -75.390
 443.4600, -72.953
 443.4700, -70.708
 443.4800, -73.269
 443.4900,-210.000
 443.5000,-210.000
 443.5100,-210.000
 443.5200, -74.408
 443.5300,-210.000
 443.5400, -70.205
 443.5500, -67.937
 443.5600, -77.753
 443.5700,-210.000
 443.5800, -71.599
 443.5900,-210.000
 443.6000, -75.450
 443.6100, -74.211
 443.6200, -71.966
 443.6300, -77.531
 443.6400, -77.873
 443.6500,-210.000
 443.6600, -71.947
 443.6700,-210.000
 443.6800, -71.177
 443.6900, -77.260
 443.7000, -69.278
 443.7100, -72.506
 443.7200,-210.000
 443.7300, -73.517
 443.7400, -72.898
 443.7500, -73.238
 443.7600, -73.097
 443.7700, -75.137
 443.7800,-210.000
 443.7900,-210.000
 443.8000, -70.025
 443.8100, -72.943
 443.8200,-210.000
 443.8300,-210.000
 443.8400, -77.800
 443.8500, -71.725
 443.8600, -71.141
 443.8700, -69.745
 443.8800,-210.000
 443.8900, -78.268
 443.9000, -72.690
 443.9100, -74.034
 443.9200, -71.605
 443.9300, -71.798
 443.9400, -69.875
 443.9500,-210.000
 443.9600,-210.000
 443.9700, -72.381
 443.9800,-210.000
 443.9900, -73.623
 444.0000,-210.000
 444.0100, -77.835
 444.0200, -86.841
 444.0300, -74.206
 444.0400, -70.628
 444.0500, -94.695
 444.0600, -74.780
 444.0700,-210.000
 444.0800, -77.776
 444.0900, -73.978
 444.1000, -73.733
 444.1100, -78.587
 444.1200, -77.227
 444.1300, -71.887
 444.1400, -79.412
 444.1500, -89.054
 444.1600, -75.532
 444.1700, -75.075
 444.1800, -71.603
 444.1900,-210.000
 444.2000, -72.990
 444.2100, -71.627
 444.2200, -77.334
 444.2300, -71.893
 444.2400, -74.921
 444.2500, -72.062
 444.2600,-210.000
 444.2700,-210.000
 444.2800, -73.646
 444.2900,-210.000
 444.3000, -72.574
 444.3100, -77.891
 444.3200, -70.643
 444.3300,-210.000
 444.3400,-210.000
 444.3500,-210.000
 444.3600, -71.840
 444.3700, -74.902
 444.3800, -74.084
 444.3900,-210.000
 444.4000, -75.810
 444.4100, -71.551
 444.4200, -71.531
 444.4300,-210.000
 444.4400, -75.129
 444.4500,-210.000
 444.4600, -74.842
 444.4700, -73.251
 444.4800, -73.730
 444.4900,-210.000
 444.5000, -71.529
 444.5100, -72.530
 444.5200, -91.001
 444.5300, -73.794
 444.5400, -75.791
 444.5500, -72.237
 444.5600, -72.255
 444.5700, -71.186
 444.5800, -81.807
 444.5900, -70.535
 444.6000, -70.865
 444.6100, -73.190
 444.6200, -73.424
 444.6300,-210.000
 444.6400,-210.000
 444.6500,-210.000
 444.6600,-210.000
 444.6700, -71.781
 444.6800, -74.589
 444.6900, -71.949
 444.7000,-210.000
 444.7100, -77.054
 444.7200,-210.000
 444.7300, -71.963
 444.7400, -78.542
 444.7500, -73.306
 444.7600,-210.000
 444.7700, -70.314
 444.7800, -68.070
 444.7900,-210.000
 444.8000, -72.867
 444.8100, -72.670
 444.8200,-210.000
 444.8300, -71.990
 444.8400,-210.000
 444.8500, -81.106
 444.8600, -74.783
 444.8700, -74.131
 444.8800, -72.748
 444.8900, -74.123
 444.9000, -71.936
 444.9100, -73.336
 444.9200, -73.732
 444.9300, -73.513
 444.9400, -78.667
 444.9500, -73.343
 444.9600, -75.713
 444.9700, -80.072
 444.9800, -69.912
 444.9900, -89.881
 445.0000, -79.645
 445.0100,-210.000
 445.0200,-210.000
 445.0300, -71.728
 445.0400, -72.399
 445.0500, -75.746
 445.0600,-210.000
 445.0700,-210.000
 445.0800, -73.286
 445.0900, -68.750
 445.1000,-210.000
 445.1100, -72.831
 445.1200, -75.097
 445.1300, -77.832
 445.1400,-210.000
 445.1500, -74.918
 445.1600, -73.497
 445.1700, -82.851
 445.1800,-210.000
 445.1900, -71.929
 445.2000, -75.643
 445.2100,-210.000
 445.2200,-210.000
 445.2300,-210.000
 445.2400, -78.652
 445.2500, -72.927
 445.2600, -68.947
 445.2700, -75.296
 445.2800, -73.436
 445.2900, -73.616
 445.3000, -79.296
 445.3100,-210.000
 445.3200, -74.601
 445.3300, -75.381
 445.3400, -75.990
 445.3500, -78.577
 445.3600,-210.000
 445.3700, -71.947
 445.3800, -71.439
 445.3900, -71.980
 445.4000, -70.880
 445.4100, -73.081
 445.4200, -71.381
 445.4300,-210.000
 445.4400, -70.529
 445.4500, -81.658
 445.4600, -77.494
 445.4700, -75.210
 445.4800, -74.458
 445.4900, -75.291
 445.5000,-210.000
 445.5100, -72.320
 445.5200, -81.816
 445.5300,-210.000
 445.5400, -72.894
 445.5500, -75.674
 445.5600, -70.347
 445.5700, -76.752
 445.5800, -76.872
 445.5900,-210.000
 445.6000,-210.000
 445.6100, -74.863
 445.6200,-210.000
 445.6300,-210.000
 445.6400, -80.709
 445.6500, -74.015
 445.6600, -72.266
 445.6700, -74.244
 445.6800,-210.000
 445.6900, -77.484
 445.7000, -74.109
 445.7100, -77.000
 445.7200,-210.000
 445.7300, -78.112
 445.7400, -72.583
 445.7500, -76.343
 445.7600, -80.948
 445.7700, -71.694
 445.7800, -73.922
 445.7900, -71.847
 445.8000,-210.000
 445.8100, -74.563
 445.8200, -67.792
 445.8300, -75.364
 445.8400, -71.211
 445.8500,-210.000
 445.8600, -90.386
 445.8700, -81.030
 445.8800,-210.000
 445.8900,-210.000
 445.9000, -78.485
 445.9100, -70.527
 445.9200, -78.243
 445.9300, -83.500
 445.9400, -73.796
 445.9500, -78.670
 445.9600, -77.691
 445.9700, -78.735
 445.9800, -74.589
 445.9900, -70.326
 446.0000, -71.253
 446.0100, -73.289
 446.0200,-210.000
 446.0300, -71.379
 446.0400, -73.898
 446.0500, -75.569
 446.0600,-210.000
 446.0700,-210.000
 446.0800,-210.000
 446.0900, -83.871
 446.1000,-210.000
 446.1100, -91.706
 446.1200, -74.457
 446.1300, -76.376
 446.1400, -72.574
 446.1500, -74.323
 446.1600,-210.000
 446.1700, -71.020
 446.1800,-210.000
 446.1900, -75.562
 446.2000, -71.056
 446.2100, -81.369
 446.2200, -74.820
 446.2300, -74.862
 446.2400, -76.250
 446.2500,-210.000
 446.2600, -83.767
 446.2700, -74.835
 446.2800,-210.000
 446.2900, -70.455
 446.3000,-210.000
 446.3100,-210.000
 446.3200, -82.190
 446.3300,-210.000
 446.3400,-210.000
 446.3500, -73.365
 446.3600,-210.000
 446.3700,-210.000
 446.3800, -70.847
 446.3900,-210.000
 446.4000,-210.000
 446.4100, -73.563
 446.4200,-210.000
 446.4300, -69.607
 446.4400, -76.314
 446.4500, -72.581
 446.4600,-210.000
 446.4700,-210.000
 446.4800, -72.934
 446.4900, -74.211
 446.5000, -73.823
 446.5100, -71.112
 446.5200,-210.000
 446.5300, -77.730
 446.5400,-210.000
 446.5500, -70.406
 446.5600, -73.607
 446.5700,-210.000
 446.5800, -72.085
 446.5900,-210.000
 446.6000, -74.243
 446.6100, -80.897
 446.6200, -72.920
 446.6300, -75.604
 446.6400,-210.000
 446.6500, -84.289
 446.6600, -69.757
 446.6700, -76.623
 446.6800, -71.341
 446.6900, -77.910
 446.7000, -77.905
 446.7100,-210.000
 446.7200, -76.522
 446.7300,-210.000
 446.7400,-210.000
 446.7500, -70.578
 446.7600,-210.000
 446.7700, -69.452
 446.7800, -80.761
 446.7900, -74.354
 446.8000, -71.633
 446.8100,-210.000
 446.8200,-210.000
 446.8300, -72.989
 446.8400, -70.377
 446.8500, -73.487
 446.8600,-210.000
 446.8700, -78.298
 446.8800, -74.441
 446.8900, -73.313
 446.9000,-210.000
 446.9100,-210.000
 446.9200, -76.431
 446.9300, -80.916
 446.9400,-210.000
 446.9500, -73.682
 446.9600, -71.801
 446.9700, -69.955
 446.9800, -76.584
 446.9900, -73.101
 447.0000, -83.006
 447.0100, -73.048
 447.0200, -71.877
 447.0300, -74.665
 447.0400,-210.000
 447.0500, -72.601
 447.0600, -73.911
 447.0700, -77.756
 447.0800, -78.742
 447.0900, -70.394
 447.1000, -74.697
 447.1100, -70.320
 447.1200, -73.221
 447.1300, -80.695
 447.1400,-210.000
 447.1500, -74.406
 447.1600,-210.000
 447.1700, -76.697
 447.1800,-210.000
 447.1900, -68.261
 447.2000, -71.823
 447.2100, -73.509
 447.2200,-210.000
 447.2300, -75.718
 447.2400, -70.994
 447.2500, -71.138
 447.2600, -74.948
 447.2700, -73.901
 447.2800, -69.855
 447.2900, -72.334
 447.3000, -79.769
 447.3100, -97.800
 447.3200, -77.631
 447.3300,-210.000
 447.3400, -84.755
 447.3500, -75.583
 447.3600, -73.359
 447.3700, -73.226
 447.3800,-210.000
 447.3900, -72.659
 447.4000,-210.000
 447.4100, -76.930
 447.4200,-210.000
 447.4300, -71.036
 447.4400, -84.774
 447.4500, -80.806
 447.4600, -72.909
 447.4700, -71.158
 447.4800, -72.241
 447.4900, -71.789
 447.5000, -73.049
 447.5100,-210.000
 447.5200, -71.785
 447.5300, -78.479
 447.5400, -73.409
 447.5500, -74.691
 447.5600,-210.000
 447.5700, -69.922
 447.5800, -69.426
 447.5900, -76.744
 447.6000, -72.152
 447.6100, -68.983
 447.6200, -69.728
 447.6300, -73.611
 447.6400, -74.033
 447.6500, -74.317
 447.6600,-210.000
 447.6700, -76.265
 447.6800, -73.213
 447.6900, -73.324
 447.7000, -75.135
 447.7100, -70.067
 447.7200, -72.521
 447.7300, -80.059
 447.7400,-210.000
 447.7500,-210.000
 447.7600,-210.000
 447.7700, -73.567
 447.7800, -71.347
 447.7900, -71.712
 447.8000, -79.713
 447.8100, -74.777
 447.8200, -70.350
 447.8300, -73.917
 447.8400, -68.753
 447.8500, -76.390
 447.8600, -78.174
 447.8700,-210.000
 447.8800, -74.984
 447.8900,-210.000
 447.9000, -73.751
 447.9100,-210.000
 447.9200, -72.830
 447.9300,-210.000
 447.9400, -74.305
 447.9500, -75.890
 447.9600,-210.000
 447.9700, -70.916
 447.9800,-210.000
 447.9900, -77.893
 448.0000, -80.414
 448.0100,-210.000
 448.0200, -71.301
 448.0300,-210.000
 448.0400, -86.129
 448.0500, -84.949
 448.0600, -77.791
 448.0700, -73.771
 448.0800, -72.768
 448.0900, -73.574
 448.1000, -71.429
 448.1100, -70.965
 448.1200, -87.026
 448.1300, -70.189
 448.1400,-210.000
 448.1500, -76.564
 448.1600, -75.028
 448.1700, -70.495
 448.1800,-210.000
 448.1900,-210.000
 448.2000,-210.000
 448.2100, -73.720
 448.2200, -81.705
 448.2300, -73.943
 448.2400,-210.000
 448.2500, -78.712
 448.2600,-210.000
 448.2700, -70.697
 448.2800, -77.928
 448.2900, -75.430
 448.3000, -70.627
 448.3100,-210.000
 448.3200, -76.749
 448.3300, -76.384
 448.3400, -70.123
 448.3500,-210.000
 448.3600,-210.000
 448.3700, -73.047
 448.3800, -75.406
 448.3900, -83.091
 448.4000,-210.000
 448.4100,-210.000
 448.4200,-210.000
 448.4300,-210.000
 448.4400,-210.000
 448.4500,-210.000
 448.4600,-210.000
 448.4700, -76.408
 448.4800, -72.804
 448.4900,-210.000
 448.5000, -71.732
 448.5100, -83.299
 448.5200, -73.062
 448.5300, -73.747
 448.5400, -78.031
 448.5500, -69.881
 448.5600, -79.576
 448.5700, -71.168
 448.5800,-210.000
 448.5900, -78.913
 448.6000, -72.707
 448.6100,-210.000
 448.6200, -74.198
 448.6300, -70.986
 448.6400,-210.000
 448.6500, -82.663
 448.6600, -73.057
 448.6700, -81.671
 448.6800, -69.628
 448.6900,-210.000
 448.7000, -72.297
 448.7100, -87.562
 448.7200, -71.160
 448.7300,-210.000
 448.7400, -71.150
 448.7500, -72.451
 448.7600, -72.681
 448.7700, -77.938
 448.7800, -71.656
 448.7900,-210.000
 448.8000, -75.555
 448.8100, -73.952
 448.8200, -71.250
 448.8300, -73.716
 448.8400, -72.370
 448.8500,-210.000
 448.8600,-210.000
 448.8700, -72.674
 448.8800, -69.740
 448.8900, -72.730
 448.9000, -72.659
 448.9100, -85.004
 448.9200,-210.000
 448.9300,-210.000
 448.9400, -72.043
 448.9500,-210.000
 448.9600, -85.664
 448.9700,-210.000
 448.9800,-210.000
 448.9900, -70.362
 449.0000, -73.220
 449.0100, -81.238
 449.0200,-210.000
 449.0300, -70.655
 449.0400,-210.000
 449.0500, -74.857
 449.0600, -79.426
 449.0700, -70.129
 449.0800,-210.000
 449.0900,-210.000
 449.1000, -76.500
 449.1100,-210.000
 449.1200,-210.000
 449.1300, -71.505
 449.1400, -71.279
 449.1500, -85.137
 449.1600, -78.359
 449.1700, -71.966
 449.1800, -71.922
 449.1900, -76.919
 449.2000, -71.076
 449.2100, -70.930
 449.2200, -72.611
 449.2300, -77.359
 449.2400, -76.126
 449.2500,-210.000
 449.2600, -72.567
 449.2700,-210.000
 449.2800, -74.083
 449.2900, -78.502
 449.3000, -73.405
 449.3100, -78.249
 449.3200,-210.000
 449.3300, -70.024
 449.3400, -72.309
 449.3500, -73.758
 449.3600, -73.670
 449.3700,-210.000
 449.3800,-210.000
 449.3900, -80.744
 449.4000, -69.885
 449.4100,-210.000
 449.4200, -89.097
 449.4300, -78.945
 449.4400, -76.762
 449.4500, -72.644
 449.4600,-210.000
 449.4700, -73.308
 449.4800, -74.449
 449.4900,-210.000
 449.5000, -75.991
 449.5100,-210.000
 449.5200, -75.885
 449.5300,-210.000
 449.5400, -76.045
 449.5500, -77.014
 449.5600,-210.000
 449.5700, -74.404
 449.5800, -74.259
 449.5900,-210.000
 449.6000, -73.520
 449.6100,-210.000
 449.6200, -72.506
 449.6300, -77.426
 449.6400, -70.559
 449.6500,-210.000
 449.6600,-210.000
 449.6700,-210.000
 449.6800, -72.152
 449.6900, -75.990
 449.7000, -79.447
 449.7100,-210.000
 449.7200,-210.000
 449.7300, -75.874
 449.7400, -70.787
 449.7500, -76.190
 449.7600, -69.986
 449.7700, -77.363
 449.7800, -74.107
 449.7900,-210.000
 449.8000, -81.635
 449.8100,-210.000
 449.8200, -72.698
 449.8300, -72.527
 449.8400,-210.000
 449.8500, -72.404
 449.8600, -79.779
 449.8700,-210.000
 449.8800,-210.000
 449.8900, -72.804
 449.9000, -78.713
 449.9100, -76.804
 449.9200,-210.000
 449.9300, -71.655
 449.9400, -77.712
 449.9500, -72.322
 449.9600, -74.232
 449.9700, -74.259
 449.9800, -72.169
 449.9900,-210.000
 450.0000,-210.000
 450.0100,-210.000
 450.0200, -73.059
 450.0300, -75.714
 450.0400, -72.019
 450.0500, -75.153
 450.0600, -73.454
 450.0700, -74.533
 450.0800,-210.000
 450.0900, -72.992
 450.1000,-210.000
 450.1100, -75.604
 450.1200, -75.448
 450.1300,-210.000
 450.1400,-210.000
 450.1500, -80.642
 450.1600, -71.243
 450.1700, -74.254
 450.1800, -75.450
 450.1900,-210.000
 450.2000, -71.546
 450.2100, -71.467
 450.2200, -75.540
 450.2300, -72.582
 450.2400, -70.496
 450.2500,-210.000
 450.2600, -77.583
 450.2700, -77.137
 450.2800, -78.061
 450.2900, -70.665
 450.3000, -71.236
 450.3100,-210.000
 450.3200,-210.000
 450.3300, -72.467
 450.3400,-210.000
 450.3500, -71.510
 450.3600, -71.979
 450.3700, -71.279
 450.3800, -73.064
 450.3900, -71.962
 450.4000, -75.469
 450.4100, -71.697
 450.4200,-210.000
 450.4300,-210.000
 450.4400, -72.828
 450.4500,-210.000
 450.4600, -75.674
 450.4700, -73.311
 450.4800,-210.000
 450.4900, -74.929
 450.5000, -74.231
 450.5100, -72.932
 450.5200, -69.390
 450.5300,-210.000
 450.5400,-210.000
 450.5500, -71.683
 450.5600, -73.950
 450.5700, -71.697
 450.5800, -71.386
 450.5900, -70.539
 450.6000,-210.000
 450.6100, -81.573
 450.6200,-210.000
 450.6300, -68.223
 450.6400, -75.264
 450.6500,-210.000
 450.6600, -70.908
 450.6700, -73.203
 450.6800, -72.027
 450.6900, -71.287
 450.7000, -71.018
 450.7100, -79.994
 450.7200,-210.000
 450.7300, -75.284
 450.7400, -76.012
 450.7500, -72.866
 450.7600,-210.000
 450.7700, -71.705
 450.7800,-210.000
 450.7900, -71.492
 450.8000, -81.569
 450.8100, -73.320
 450.8200,-210.000
 450.8300, -86.384
 450.8400, -75.311
 450.8500, -71.062
 450.8600, -83.104
 450.8700, -72.607
 450.8800, -72.477
 450.8900, -74.346
 450.9000, -71.911
 450.9100,-210.000
 450.9200, -71.662
 450.9300,-210.000
 450.9400,-210.000
 450.9500, -71.565
 450.9600, -73.026
 450.9700,-210.000
 450.9800,-210.000
 450.9900,-210.000
 451.0000, -73.583
 451.0100, -72.746
 451.0200,-210.000
 451.0300, -73.770
 451.0400, -75.954
 451.0500, -72.765
 451.0600, -73.570
 451.0700, -75.386
 451.0800, -82.546
 451.0900, -76.789
 451.1000, -73.367
 451.1100, -73.349
 451.1200, -75.622
 451.1300, -79.602
 451.1400, -75.162
 451.1500, -75.385
 451.1600,-210.000
 451.1700,-210.000
 451.1800,-210.000
 451.1900, -71.249
 451.2000, -71.718
 451.2100, -70.965
 451.2200, -70.700
 451.2300, -69.389
 451.2400, -70.415
 451.2500, -79.737
 451.2600, -76.117
 451.2700, -72.566
 451.2800, -70.397
 451.2900, -72.662
 451.3000, -67.932
 451.3100, -71.926
 451.3200, -70.596
 451.3300, -78.760
 451.3400, -69.776
 451.3500, -77.060
 451.3600, -76.056
 451.3700, -74.843
 451.3800, -70.307
 451.3900, -75.846
 451.4000, -70.323
 451.4100, -78.107
 451.4200,-210.000
 451.4300, -77.682
 451.4400, -67.760
 451.4500, -71.119
 451.4600, -80.704
 451.4700, -75.333
 451.4800, -73.681
 451.4900, -71.860
 451.5000, -76.227
 451.5100, -73.221
 451.5200, -71.288
 451.5300,-210.000
 451.5400, -73.458
 451.5500, -72.513
 451.5600,-210.000
 451.5700, -70.447
 451.5800, -78.617
 451.5900, -71.172
 451.6000, -69.290
 451.6100, -68.018
 451.6200, -67.939
 451.6300, -67.406
 451.6400, -66.774
 451.6500, -68.359
 451.6600, -66.956
 451.6700, -66.008
 451.6800, -67.403
 451.6900, -66.917
 451.7000, -68.268
 451.7100, -66.790
 451.7200, -65.999
 451.7300, -68.639
 451.7400, -67.711
 451.7500, -68.443
 451.7600, -67.049
 451.7700, -66.893
 451.7800, -67.067
 451.7900, -65.609
 451.8000, -65.983
 451.8100, -64.247
 451.8200, -64.707
 451.8300, -64.287
 451.8400, -64.877
 451.8500, -65.708
 451.8600, -64.824
 451.8700, -63.475
 451.8800, -62.580
 451.8900, -63.307
 451.9000, -64.666
 451.9100, -63.993
 451.9200, -62.031
 451.9300, -61.847
 451.9400, -61.961
 451.9500, -60.393
 451.9600, -60.536
 451.9700, -59.805
 451.9800, -59.496
 451.9900, -59.495
 452.0000, -58.998
 452.0100, -58.689
 452.0200, -57.968
 452.0300, -58.690
 452.0400, -58.961
 452.0500, -59.244
 452.0600, -59.290
 452.0700, -58.241
 452.0800, -58.047
 452.0900, -58.205
 452.1000, -59.030
 452.1100, -58.322
 452.1200, -58.032
 452.1300, -57.466
 452.1400, -56.950
 452.1500, -57.080
 452.1600, -57.019
 452.1700, -56.092
 452.1800, -56.036
 452.1900, -55.919
 452.2000, -55.881
 452.2100, -55.793
 452.2200, -55.246
 452.2300, -55.118
 452.2400, -55.281
 452.2500, -55.005
 452.2600, -55.009
 452.2700, -54.836
 452.2800, -54.824
 452.2900, -54.628
 452.3000, -54.608
 452.3100, -54.755
 452.3200, -54.591
 452.3300, -55.000
 452.3400, -54.659
 452.3500, -54.670
 452.3600, -54.801
 452.3700, -55.086
 452.3800, -55.231
 452.3900, -55.178
 452.4000, -55.552
 452.4100, -55.272
 452.4200, -55.137
 452.4300, -55.068
 452.4400, -55.479
 452.4500, -55.947
 452.4600, -56.153
 452.4700, -56.399
 452.4800, -55.494
 452.4900, -55.876
 452.5000, -56.757
 452.5100, -57.211
 452.5200, -57.098
 452.5300, -56.724
 452.5400, -56.114
 452.5500, -56.597
 452.5600, -56.748
 452.5700, -56.607
 452.5800, -56.575
 452.5900, -56.590
 452.6000, -56.508
 452.6100, -56.574
 452.6200, -56.606
 452.6300, -57.151
 452.6400, -57.490
 452.6500, -57.272
 452.6600, -58.279
 452.6700, -59.150
 452.6800, -58.424
 452.6900, -59.078
 452.7000, -58.716
 452.7100, -58.538
 452.7200, -58.023
 452.7300, -57.847
 452.7400, -57.697
 452.7500, -57.463
 452.7600, -58.115
 452.7700, -56.371
 452.7800, -56.049
 452.7900, -56.178
 452.8000, -56.087
 452.8100, -55.796
 452.8200, -55.456
 452.8300, -55.489
 452.8400, -55.377
 452.8500, -55.034
 452.8600, -55.173
 452.8700, -54.588
 452.8800, -54.790
 452.8900, -54.730
 452.9000, -54.294
 452.9100, -53.897
 452.9200, -53.998
 452.9300, -54.031
 452.9400, -53.676
 452.9500, -53.600
 452.9600, -53.223
 452.9700, -52.949
 452.9800, -53.187
 452.9900, -52.831
 453.0000, -52.830
 453.0100, -52.820
 453.0200, -52.708
 453.0300, -52.721
 453.0400, -52.469
 453.0500, -52.556
 453.0600, -52.358
 453.0700, -52.422
 453.0800, -52.018
 453.0900, -51.851
 453.1000, -51.864
 453.1100, -51.593
 453.1200, -51.565
 453.1300, -51.681
 453.1400, -51.884
 453.1500, -51.673
 453.1600, -51.468
 453.1700, -51.599
 453.1800, -51.608
 453.1900, -51.970
 453.2000, -51.864
 453.2100, -51.680
 453.2200, -51.693
 453.2300, -51.600
 453.2400, -51.554
 453.2500, -51.366
 453.2600, -51.450
 453.2700, -51.672
 453.2800, -51.751
 453.2900, -51.855
 453.3000, -51.675
 453.3100, -51.678
 453.3200, -52.098
 453.3300, -52.325
 453.3400, -52.294
 453.3500, -52.186
 453.3600, -52.166
 453.3700, -52.018
 453.3800, -52.054
 453.3900, -52.159
 453.4000, -52.105
 453.4100, -52.086
 453.4200, -52.190
 453.4300, -52.287
 453.4400, -52.310
 453.4500, -52.297
 453.4600, -52.270
 453.4700, -52.280
 453.4800, -52.373
 453.4900, -52.262
 453.5000, -52.191
 453.5100, -52.672
 453.5200, -52.455
 453.5300, -52.355
 453.5400, -52.560
 453.5500, -52.459
 453.5600, -52.519
 453.5700, -52.805
 453.5800, -52.817
 453.5900, -52.691
 453.6000, -52.714
 453.6100, -52.960
 453.6200, -52.853
 453.6300, -53.715
 453.6400, -53.870
 453.6500, -53.813
 453.6600, -54.347
 453.6700, -54.633
 453.6800, -55.119
 453.6900, -54.608
 453.7000, -56.360
 453.7100, -57.113
 453.7200, -57.058
 453.7300, -57.078
 453.7400, -57.145
 453.7500, -57.077
 453.7600, -56.909
 453.7700, -56.578
 453.7800, -56.764
 453.7900, -57.254
 453.8000, -58.108
 453.8100, -56.986
 453.8200, -57.244
 453.8300, -57.288
 453.8400, -57.252
 453.8500, -58.483
 453.8600, -58.140
 453.8700, -56.862
 453.8800, -57.235
 453.8900, -56.128
 453.9000, -56.996
 453.9100, -56.931
 453.9200, -55.917
 453.9300, -56.143
 453.9400, -55.872
 453.9500, -55.218
 453.9600, -54.892
 453.9700, -54.858
 453.9800, -54.584
 453.9900, -54.230
 454.0000, -54.414
 454.0100, -54.464
 454.0200, -54.384
 454.0300, -53.954
 454.0400, -53.567
 454.0500, -54.109
 454.0600, -54.674
 454.0700, -53.709
 454.0800, -54.335
 454.0900, -55.321
 454.1000, -55.911
 454.1100, -55.985
 454.1200, -54.583
 454.1300, -54.937
 454.1400, -56.220
 454.1500, -56.872
 454.1600, -56.042
 454.1700, -55.313
 454.1800, -55.976
 454.1900, -54.823
 454.2000, -54.208
 454.2100, -54.073
 454.2200, -53.714
 454.2300, -54.456
 454.2400, -54.652
 454.2500, -53.165
 454.2600, -53.398
 454.2700, -53.364
 454.2800, -53.447
 454.2900, -54.181
 454.3000, -53.327
 454.3100, -52.770
 454.3200, -52.825
 454.3300, -52.308
 454.3400, -53.480
 454.3500, -53.235
 454.3600, -52.146
 454.3700, -52.301
 454.3800, -52.057
 454.3900, -52.456
 454.4000, -52.324
 454.4100, -52.398
 454.4200, -52.416
 454.4300, -52.281
 454.4400, -52.393
 454.4500, -52.449
 454.4600, -52.360
 454.4700, -53.040
 454.4800, -52.735
 454.4900, -53.008
 454.5000, -53.070
 454.5100, -52.954
 454.5200, -54.127
 454.5300, -55.164
 454.5400, -55.326
 454.5500, -56.184
 454.5600, -54.060
 454.5700, -54.928
 454.5800, -56.896
 454.5900, -56.992
 454.6000, -57.461
 454.6100, -57.008
 454.6200, -56.316
 454.6300, -57.803
 454.6400, -58.514
 454.6500, -58.437
 454.6600, -58.665
 454.6700, -56.699
 454.6800, -57.217
 454.6900, -58.317
 454.7000, -57.842
 454.7100, -58.387
 454.7200, -57.751
 454.7300, -57.093
 454.7400, -57.781
 454.7500, -57.511
 454.7600, -57.212
 454.7700, -57.578
 454.7800, -56.878
 454.7900, -57.021
 454.8000, -57.197
 454.8100, -56.779
 454.8200, -57.173
 454.8300, -56.687
 454.8400, -56.738
 454.8500, -56.529
 454.8600, -56.555
 454.8700, -56.532
 454.8800, -56.335
 454.8900, -55.677
 454.9000, -55.708
 454.9100, -55.820
 454.9200, -55.422
 454.9300, -55.776
 454.9400, -55.336
 454.9500, -55.173
 454.9600, -55.499
 454.9700, -55.098
 454.9800, -55.097
 454.9900, -55.063
 455.0000, -54.954
 455.0100, -54.870
 455.0200, -54.643
 455.0300, -54.376
 455.0400, -54.118
 455.0500, -54.180
 455.0600, -54.072
 455.0700, -53.856
 455.0800, -53.772
 455.0900, -53.645
 455.1000, -53.548
 455.1100, -53.588
 455.1200, -53.574
 455.1300, -53.476
 455.1400, -53.378
 455.1500, -53.469
 455.1600, -53.461
 455.1700, -53.406
 455.1800, -53.141
 455.1900, -53.224
 455.2000, -53.229
 455.2100, -53.199
 455.2200, -53.097
 455.2300, -52.989
 455.2400, -52.954
 455.2500, -53.058
 455.2600, -52.948
 455.2700, -52.676
 455.2800, -52.697
 455.2900, -52.962
 455.3000, -53.030
 455.3100, -52.874
 455.3200, -52.790
 455.3300, -52.500
 455.3400, -52.669
 455.3500, -52.538
 455.3600, -52.574
 455.3700, -52.288
 455.3800, -52.382
 455.3900, -52.256
 455.4000, -52.073
 455.4100, -52.049
 455.4200, -51.820
 455.4300, -51.994
 455.4400, -51.964
 455.4500, -51.965
 455.4600, -51.964
 455.4700, -51.808
 455.4800, -51.921
 455.4900, -51.928
 455.5000, -52.005
 455.5100, -52.125
 455.5200, -51.969
 455.5300, -52.034
 455.5400, -51.902
 455.5500, -52.118
 455.5600, -51.893
 455.5700, -51.954
 455.5800, -51.784
 455.5900, -51.604
 455.6000, -51.745
 455.6100, -51.626
 455.6200, -51.415
 455.6300, -51.480
 455.6400, -51.376
 455.6500, -51.399
 455.6600, -51.437
 455.6700, -51.169
 455.6800, -51.299
 455.6900, -51.263
 455.7000, -51.216
 455.7100, -51.284
 455.7200, -51.015
 455.7300, -50.875
 455.7400, -50.814
 455.7500, -50.827
 455.7600, -50.804
 455.7700, -50.708
 455.7800, -50.562
 455.7900, -50.507
 455.8000, -50.484
 455.8100, -50.462
 455.8200, -50.494
 455.8300, -50.562
 455.8400, -50.679
 455.8500, -50.841
 455.8600, -50.828
 455.8700, -50.937
 455.8800, -50.950
 455.8900, -51.134
 455.9000, -51.102
 455.9100, -51.007
 455.9200, -51.065
 455.9300, -50.955
 455.9400, -50.945
 455.9500, -50.857
 455.9600, -50.888
 455.9700, -50.949
 455.9800, -51.110
 455.9900, -51.170
 456.0000, -51.319
 456.0100, -51.370
 456.0200, -51.633
 456.0300, -51.685
 456.0400, -51.800
 456.0500, -51.874
 456.0600, -51.997
 456.0700, -51.961
 456.0800, -52.033
 456.0900, -52.095
 456.1000, -52.198
 456.1100, -52.619
 456.1200, -52.821
 456.1300, -52.971
 456.1400, -53.076
 456.1500, -53.206
 456.1600, -53.961
 456.1700, -54.513
 456.1800, -54.676
 456.1900, -54.980
 456.2000, -54.944
 456.2100, -55.537
 456.2200, -56.168
 456.2300, -56.252
 456.2400, -56.473
 456.2500, -56.515
 456.2600, -56.756
 456.2700, -56.800
 456.2800, -56.519
 456.2900, -56.631
 456.3000, -56.740
 456.3100, -56.774
 456.3200, -56.559
 456.3300, -56.340
 456.3400, -56.311
 456.3500, -56.384
 456.3600, -56.535
 456.3700, -56.567
 456.3800, -56.195
 456.3900, -56.881
 456.4000, -56.875
 456.4100, -57.099
 456.4200, -57.012
 456.4300, -57.432
 456.4400, -57.439
 456.4500, -57.713
 456.4600, -56.749
 456.4700, -56.897
 456.4800, -56.824
 456.4900, -57.613
 456.5000, -57.425
 456.5100, -57.811
 456.5200, -57.431
 456.5300, -57.506
 456.5400, -58.026
 456.5500, -58.134
 456.5600, -57.581
 456.5700, -59.539
 456.5800, -59.115
 456.5900, -59.518
 456.6000, -60.185
 456.6100, -59.563
 456.6200, -60.160
 456.6300, -61.152
 456.6400, -62.046
 456.6500, -61.838
 456.6600, -62.446
 456.6700, -62.615
 456.6800, -61.716
 456.6900, -63.165
 456.7000, -64.179
 456.7100, -64.042
 456.7200, -65.640
 456.7300, -66.369
 456.7400, -67.007
 456.7500, -66.347
 456.7600, -68.132
 456.7700, -70.924
 456.7800, -76.033
 456.7900, -73.029
 456.8000, -69.374
 456.8100, -75.148
 456.8200, -73.288
 456.8300, -71.820
 456.8400, -72.091
 456.8500, -73.843
 456.8600, -78.520
 456.8700,-210.000
 456.8800, -72.007
 456.8900, -76.913
 456.9000, -78.176
 456.9100,-210.000
 456.9200, -68.524
 456.9300, -71.974
 456.9400,-210.000
 456.9500, -70.421
 456.9600, -78.150
 456.9700, -71.556
 456.9800, -71.771
 456.9900, -71.068
 457.0000, -72.489
 457.0100, -76.972
 457.0200, -85.562
 457.0300, -70.584
 457.0400,-210.000
 457.0500, -72.462
 457.0600, -72.968
 457.0700,-210.000
 457.0800,-210.000
 457.0900, -74.041
 457.1000,-210.000
 457.1100, -72.983
 457.1200, -83.415
 457.1300, -71.273
 457.1400, -70.138
 457.1500, -74.072
 457.1600, -73.244
 457.1700, -80.966
 457.1800, -72.541
 457.1900, -79.575
 457.2000,-210.000
 457.2100, -76.875
 457.2200, -73.185
 457.2300, -72.922
 457.2400, -74.543
 457.2500, -73.270
 457.2600, -73.218
 457.2700, -79.048
 457.2800, -73.982
 457.2900, -71.415
 457.3000,-210.000
 457.3100, -75.537
 457.3200, -72.584
 457.3300, -71.429
 457.3400, -72.036
 457.3500, -76.945
 457.3600, -69.673
 457.3700, -74.912
 457.3800,-210.000
 457.3900, -77.525
 457.4000, -75.426
 457.4100, -72.546
 457.4200, -72.156
 457.4300, -73.000
 457.4400, -73.194
 457.4500, -91.026
 457.4600, -72.236
 457.4700,-210.000
 457.4800, -76.759
 457.4900,-210.000
 457.5000,-210.000
 457.5100, -70.543
 457.5200, -71.774
 457.5300, -75.003
 457.5400, -72.732
 457.5500, -79.159
 457.5600,-210.000
 457.5700,-210.000
 457.5800, -81.879
 457.5900, -70.604
 457.6000, -73.066
 457.6100,-210.000
 457.6200, -75.880
 457.6300, -73.505
 457.6400, -70.016
 457.6500, -94.433
 457.6600, -73.516
 457.6700, -74.177
 457.6800,-210.000
 457.6900, -72.720
 457.7000,-210.000
 457.7100,-210.000
 457.7200, -73.221
 457.7300, -76.055
 457.7400, -73.548
 457.7500,-210.000
 457.7600, -76.278
 457.7700, -76.236
 457.7800, -70.871
 457.7900, -71.894
 457.8000, -73.836
 457.8100, -73.722
 457.8200, -74.617
 457.8300, -80.206
 457.8400,-210.000
 457.8500, -70.226
 457.8600, -78.845
 457.8700, -75.368
 457.8800, -78.322
 457.8900, -74.538
 457.9000, -74.567
 457.9100,-210.000
 457.9200, -74.059
 457.9300, -74.908
 457.9400, -76.012
 457.9500,-210.000
 457.9600, -81.204
 457.9700,-210.000
 457.9800, -74.710
 457.9900, -71.719
 458.0000, -75.083
 458.0100, -75.337
 458.0200,-210.000
 458.0300, -79.494
 458.0400, -73.763
 458.0500, -84.325
 458.0600, -71.556
 458.0700,-210.000
 458.0800,-210.000
 458.0900, -72.960
 458.1000, -75.520
 458.1100,-210.000
 458.1200, -80.594
 458.1300, -73.563
 458.1400, -73.008
 458.1500,-210.000
 458.1600,-210.000
 458.1700,-210.000
 458.1800, -73.101
 458.1900,-210.000
 458.2000, -77.160
 458.2100, -74.360
 458.2200, -71.544
 458.2300,-210.000
 458.2400, -71.271
 458.2500,-210.000
 458.2600, -73.120
 458.2700,-210.000
 458.2800, -74.209
 458.2900, -83.308
 458.3000, -78.137
 458.3100,-210.000
 458.3200, -76.484
 458.3300,-210.000
 458.3400, -71.954
 458.3500, -72.434
 458.3600, -77.245
 458.3700,-210.000
 458.3800, -75.243
 458.3900, -77.295
 458.4000, -92.338
 458.4100, -73.644
 458.4200, -71.230
 458.4300, -77.816
 458.4400, -74.167
 458.4500, -80.196
 458.4600,-210.000
 458.4700, -78.948
 458.4800,-210.000
 458.4900, -77.574
 458.5000,-210.000
 458.5100, -76.806
 458.5200,-210.000
 458.5300, -73.717
 458.5400, -73.731
 458.5500, -74.154
 458.5600, -74.759
 458.5700,-210.000
 458.5800, -72.808
 458.5900, -72.089
 458.6000, -78.057
 458.6100, -81.014
 458.6200, -70.701
 458.6300,-210.000
 458.6400,-210.000
 458.6500, -71.026
 458.6600, -71.565
 458.6700, -77.818
 458.6800, -72.688
 458.6900, -82.032
 458.7000, -79.514
 458.7100, -72.548
 458.7200, -71.118
 458.7300, -76.924
 458.7400, -75.482
 458.7500,-210.000
 458.7600, -74.112
 458.7700,-210.000
 458.7800,-210.000
 458.7900, -79.308
 458.8000,-210.000
 458.8100, -80.375
 458.8200, -74.341
 458.8300, -69.898
 458.8400, -73.291
 458.8500, -73.098
 458.8600, -82.393
 458.8700, -77.018
 458.8800, -70.448
 458.8900, -76.821
 458.9000, -76.678
 458.9100, -79.374
 458.9200, -72.927
 458.9300, -78.720
 458.9400,-210.000
 458.9500, -73.861
 458.9600, -75.158
 458.9700,-210.000
 458.9800, -74.535
 458.9900, -79.601
 459.0000,-210.000
 459.0100, -78.375
 459.0200,-210.000
 459.0300,-210.000
 459.0400, -71.582
 459.0500,-210.000
 459.0600, -85.113
 459.0700, -74.517
 459.0800, -73.270
 459.0900, -71.767
 459.1000, -75.801
 459.1100,-210.000
 459.1200,-210.000
 459.1300, -73.278
 459.1400, -74.132
 459.1500, -79.163
 459.1600, -70.829
 459.1700, -77.948
 459.1800, -80.810
 459.1900,-210.000
 459.2000,-210.000
 459.2100, -75.016
 459.2200, -72.666
 459.2300, -76.411
 459.2400, -85.229
 459.2500, -73.030
 459.2600,-210.000
 459.2700, -77.902
 459.2800, -71.519
 459.2900, -73.130
 459.3000,-210.000
 459.3100, -81.716
 459.3200, -81.382
 459.3300, -73.826
 459.3400, -73.038
 459.3500,-210.000
 459.3600, -75.461
 459.3700, -76.783
 459.3800,-210.000
 459.3900,-210.000
 459.4000, -72.107
 459.4100, -74.025
 459.4200, -82.063
 459.4300, -78.156
 459.4400,-210.000
 459.4500, -74.188
 459.4600, -74.854
 459.4700, -81.852
 459.4800, -81.014
 459.4900, -75.180
 459.5000, -70.722
 459.5100, -72.209
 459.5200, -83.565
 459.5300,-210.000
 459.5400,-210.000
 459.5500, -72.984
 459.5600,-210.000
 459.5700,-210.000
 459.5800, -76.770
 459.5900,-210.000
 459.6000, -72.839
 459.6100, -74.223
 459.6200, -69.804
 459.6300, -77.124
 459.6400,-210.000
 459.6500, -73.062
 459.6600, -70.305
 459.6700,-210.000
 459.6800, -76.641
 459.6900, -84.115
 459.7000, -71.318
 459.7100, -74.157
 459.7200, -71.083
 459.7300, -84.746
 459.7400, -78.978
 459.7500,-210.000
 459.7600, -75.045
 459.7700, -71.304
 459.7800, -85.471
 459.7900, -72.970
 459.8000, -96.204
 459.8100, -80.367
 459.8200,-210.000
 459.8300, -73.565
 459.8400, -73.815
 459.8500, -74.837
 459.8600, -77.839
 459.8700,-210.000
 459.8800, -75.249
 459.8900, -73.352
 459.9000, -71.180
 459.9100, -72.893
 459.9200,-210.000
 459.9300, -69.911
 459.9400, -70.324
 459.9500, -75.986
 459.9600, -89.573
 459.9700, -71.964
 459.9800, -78.549
 459.9900, -71.518
 460.0000, -71.902
 460.0100, -74.992
 460.0200, -70.637
 460.0300,-210.000
 460.0400,-210.000
 460.0500, -78.461
 460.0600, -73.662
 460.0700, -80.305
 460.0800,-210.000
 460.0900, -71.033
 460.1000,-210.000
 460.1100, -81.313
 460.1200,-210.000
 460.1300, -78.105
 460.1400, -76.993
 460.1500, -76.242
 460.1600, -77.879
 460.1700,-210.000
 460.1800,-210.000
 460.1900, -74.257
 460.2000, -72.045
 460.2100, -72.176
 460.2200, -75.375
 460.2300, -76.032
 460.2400, -71.431
 460.2500, -74.336
 460.2600, -71.929
 460.2700, -79.925
 460.2800, -91.915
 460.2900, -71.183
 460.3000, -74.710
 460.3100, -78.471
 460.3200, -70.613
 460.3300, -81.304
 460.3400, -71.841
 460.3500, -78.458
 460.3600,-210.000
 460.3700, -75.758
 460.3800, -73.326
 460.3900, -77.903
 460.4000, -82.077
 460.4100, -75.485
 460.4200, -79.128
 460.4300,-210.000
 460.4400,-210.000
 460.4500, -71.945
 460.4600, -73.101
 460.4700,-210.000
 460.4800,-210.000
 460.4900,-210.000
 460.5000, -72.171
 460.5100, -72.656
 460.5200, -71.736
 460.5300, -73.626
 460.5400,-210.000
 460.5500, -78.993
 460.5600, -71.498
 460.5700, -78.442
 460.5800, -77.881
 460.5900, -78.666
 460.6000, -77.096
 460.6100, -77.851
 460.6200, -71.351
 460.6300, -74.668
 460.6400, -72.273
 460.6500, -78.681
 460.6600, -76.557
 460.6700, -76.292
 460.6800,-210.000
 460.6900, -76.504
 460.7000, -74.647
 460.7100, -75.264
 460.7200, -76.066
 460.7300,-210.000
 460.7400, -74.622
 460.7500, -78.904
 460.7600, -76.908
 460.7700, -82.564
 460.7800, -75.199
 460.7900, -74.752
 460.8000, -82.095
 460.8100,-210.000
 460.8200, -74.802
 460.8300, -71.949
 460.8400, -72.629
 460.8500, -73.234
 460.8600, -70.428
 460.8700,-210.000
 460.8800, -74.768
 460.8900, -73.934
 460.9000, -75.934
 460.9100, -84.189
 460.9200, -75.577
 460.9300, -74.923
 460.9400, -72.636
 460.9500,-210.000
 460.9600,-210.000
 460.9700, -71.600
 460.9800, -73.328
 460.9900, -71.662
 461.0000,-210.000
 461.0100, -71.843
 461.0200, -74.511
 461.0300, -73.335
 461.0400, -69.727
 461.0500, -74.588
 461.0600, -78.918
 461.0700, -71.544
 461.0800, -81.772
 461.0900, -78.172
 461.1000,-210.000
 461.1100, -70.913
 461.1200,-210.000
 461.1300, -75.234
 461.1400, -73.441
 461.1500, -72.753
 461.1600, -74.040
 461.1700, -78.289
 461.1800, -80.239
 461.1900, -74.642
 461.2000, -72.665
 461.2100,-210.000
 461.2200, -72.932
 461.2300, -73.447
 461.2400, -80.218
 461.2500, -79.082
 461.2600, -81.034
 461.2700, -79.658
 461.2800, -71.351
 461.2900, -78.509
 461.3000,-210.000
 461.3100, -89.711
 461.3200, -77.342
 461.3300, -77.044
 461.3400, -75.063
 461.3500, -75.447
 461.3600, -76.247
 461.3700, -81.626
 461.3800, -75.661
 461.3900, -75.319
 461.4000, -77.213
 461.4100, -75.112
 461.4200, -76.923
 461.4300, -81.070
 461.4400,-210.000
 461.4500,-210.000
 461.4600,-210.000
 461.4700, -75.777
 461.4800, -74.949
 461.4900, -72.773
 461.5000, -71.596
 461.5100, -71.752
 461.5200,-210.000
 461.5300, -72.462
 461.5400,-210.000
 461.5500,-210.000
 461.5600, -73.359
 461.5700, -79.791
 461.5800,-210.000
 461.5900, -91.533
 461.6000, -85.334
 461.6100, -73.633
 461.6200,-210.000
 461.6300,-210.000
 461.6400,-210.000
 461.6500,-210.000
 461.6600,-210.000
 461.6700, -72.083
 461.6800, -73.839
 461.6900, -72.977
 461.7000, -71.964
 461.7100, -74.453
 461.7200, -72.646
 461.7300, -75.965
 461.7400,-210.000
 461.7500, -71.884
 461.7600, -81.465
 461.7700, -72.533
 461.7800,-210.000
 461.7900, -76.568
 461.8000, -72.260
 461.8100, -71.450
 461.8200, -74.619
 461.8300, -73.957
 461.8400, -83.941
 461.8500, -72.748
 461.8600, -71.768
 461.8700, -75.968
 461.8800, -70.258
 461.8900, -74.918
 461.9000,-210.000
 461.9100, -72.199
 461.9200, -74.931
 461.9300,-210.000
 461.9400, -77.418
 461.9500,-210.000
 461.9600, -76.173
 461.9700, -71.815
 461.9800, -75.332
 461.9900, -77.158
 462.0000, -77.717
 462.0100,-210.000
 462.0200, -73.201
 462.0300,-210.000
 462.0400, -72.219
 462.0500, -80.436
 462.0600,-210.000
 462.0700, -74.171
 462.0800, -73.019
 462.0900, -74.016
 462.1000, -80.003
 462.1100, -71.905
 462.1200, -73.042
 462.1300, -78.309
 462.1400, -72.392
 462.1500,-210.000
 462.1600, -72.986
 462.1700, -80.552
 462.1800, -70.482
 462.1900, -75.915
 462.2000, -74.762
 462.2100, -71.364
 462.2200, -83.094
 462.2300, -82.187
 462.2400, -71.806
 462.2500, -73.177
 462.2600, -83.573
 462.2700, -71.559
 462.2800, -81.383
 462.2900, -82.277
 462.3000, -74.098
 462.3100, -72.982
 462.3200, -88.085
 462.3300, -83.786
 462.3400, -72.883
 462.3500, -73.307
 462.3600, -72.361
 462.3700, -75.396
 462.3800, -71.988
 462.3900,-210.000
 462.4000, -72.474
 462.4100, -76.243
 462.4200, -71.585
 462.4300, -81.460
 462.4400,-210.000
 462.4500, -76.906
 462.4600,-210.000
 462.4700,-210.000
 462.4800, -75.567
 462.4900,-210.000
 462.5000, -72.890
 462.5100, -82.852
 462.5200, -73.320
 462.5300, -78.153
 462.5400,-210.000
 462.5500, -71.718
 462.5600, -73.123
 462.5700, -78.647
 462.5800, -74.574
 462.5900, -71.991
 462.6000, -74.648
 462.6100, -72.491
 462.6200, -71.353
 462.6300, -75.769
 462.6400, -74.690
 462.6500, -77.505
 462.6600, -71.747
 462.6700, -78.833
 462.6800,-210.000
 462.6900,-210.000
 462.7000, -75.951
 462.7100, -73.409
 462.7200, -73.226
 462.7300, -78.815
 462.7400,-210.000
 462.7500,-210.000
 462.7600, -77.825
 462.7700,-210.000
 462.7800,-210.000
 462.7900, -74.432
 462.8000, -75.579
 462.8100, -73.532
 462.8200, -70.976
 462.8300,-210.000
 462.8400, -73.013
 462.8500, -79.585
 462.8600, -80.283
 462.8700, -88.362
 462.8800, -71.035
 462.8900, -72.206
 462.9000, -74.617
 462.9100, -72.769
 462.9200, -71.687
 462.9300, -87.022
 462.9400, -73.527
 462.9500,-210.000
 462.9600,-210.000
 462.9700, -80.853
 462.9800, -71.187
 462.9900,-210.000
 463.0000, -72.892
 463.0100, -83.569
 463.0200, -80.461
 463.0300, -73.414
 463.0400, -73.720
 463.0500, -77.019
 463.0600, -75.055
 463.0700,-210.000
 463.0800, -77.377
 463.0900, -78.421
 463.1000, -74.729
 463.1100, -72.493
 463.1200, -73.294
 463.1300,-210.000
 463.1400, -73.535
 463.1500,-210.000
 463.1600, -72.769
 463.1700,-210.000
 463.1800,-210.000
 463.1900,-210.000
 463.2000, -74.893
 463.2100, -75.210
 463.2200,-210.000
 463.2300, -71.240
 463.2400, -70.794
 463.2500,-210.000
 463.2600, -71.994
 463.2700,-210.000
 463.2800,-210.000
 463.2900, -84.452
 463.3000, -74.316
 463.3100,-210.000
 463.3200, -74.851
 463.3300,-210.000
 463.3400,-210.000
 463.3500,-210.000
 463.3600, -78.889
 463.3700, -77.414
 463.3800, -73.381
 463.3900, -73.401
 463.4000, -80.974
 463.4100, -69.802
 463.4200,-210.000
 463.4300, -69.749
 463.4400, -74.685
 463.4500,-210.000
 463.4600,-210.000
 463.4700, -72.290
 463.4800, -77.742
 463.4900, -74.133
 463.5000, -74.960
 463.5100, -73.152
 463.5200, -71.801
 463.5300, -70.390
 463.5400, -85.797
 463.5500,-210.000
 463.5600, -71.969
 463.5700, -80.730
 463.5800, -75.589
 463.5900, -78.097
 463.6000, -76.035
 463.6100,-210.000
 463.6200, -74.136
 463.6300, -74.886
 463.6400, -80.610
 463.6500, -74.349
 463.6600, -73.145
 463.6700, -76.553
 463.6800, -73.218
 463.6900, -72.105
 463.7000, -77.701
 463.7100, -71.451
 463.7200,-210.000
 463.7300, -73.375
 463.7400, -72.109
 463.7500, -73.762
 463.7600, -76.523
 463.7700, -72.365
 463.7800,-210.000
 463.7900,-210.000
 463.8000,-113.574
 463.8100, -73.360
 463.8200, -75.914
 463.8300, -72.400
 463.8400, -76.812
 463.8500, -83.311
 463.8600, -77.239
 463.8700, -85.116
 463.8800, -73.143
 463.8900, -86.832
 463.9000, -71.331
 463.9100, -75.306
 463.9200, -70.457
 463.9300, -78.106
 463.9400,-210.000
 463.9500, -73.006
 463.9600, -75.594
 463.9700,-210.000
 463.9800, -69.007
 463.9900, -76.090
 464.0000, -74.194
 464.0100, -79.632
 464.0200, -75.268
 464.0300, -78.343
 464.0400, -73.185
 464.0500, -72.801
 464.0600, -81.260
 464.0700, -73.467
 464.0800, -78.409
 464.0900, -83.648
 464.1000, -74.210
 464.1100, -74.562
 464.1200, -75.834
 464.1300, -71.942
 464.1400,-210.000
 464.1500, -93.663
 464.1600, -79.984
 464.1700,-210.000
 464.1800, -78.400
 464.1900,-210.000
 464.2000, -75.188
 464.2100, -75.748
 464.2200, -77.432
 464.2300,-210.000
 464.2400, -74.049
 464.2500,-210.000
 464.2600, -74.238
 464.2700, -71.805
 464.2800, -71.875
 464.2900, -70.981
 464.3000,-210.000
 464.3100,-210.000
 464.3200,-210.000
 464.3300, -72.689
 464.3400, -73.359
 464.3500, -75.530
 464.3600, -81.116
 464.3700, -75.767
 464.3800,-210.000
 464.3900, -75.518
 464.4000,-210.000
 464.4100,-210.000
 464.4200, -76.771
 464.4300, -71.315
 464.4400, -68.924
 464.4500, -71.154
 464.4600,-210.000
 464.4700,-210.000
 464.4800,-210.000
 464.4900, -83.540
 464.5000,-210.000
 464.5100, -77.837
 464.5200, -75.301
 464.5300,-210.000
 464.5400, -75.590
 464.5500, -79.156
 464.5600,-210.000
 464.5700, -73.046
 464.5800, -70.605
 464.5900, -72.473
 464.6000,-210.000
 464.6100, -76.274
 464.6200, -72.483
 464.6300,-210.000
 464.6400, -72.753
 464.6500, -77.849
 464.6600, -72.254
 464.6700, -76.542
 464.6800, -72.264
 464.6900,-210.000
 464.7000, -73.298
 464.7100, -75.402
 464.7200,-210.000
 464.7300, -75.392
 464.7400,-210.000
 464.7500, -73.540
 464.7600, -73.414
 464.7700,-210.000
 464.7800, -73.994
 464.7900,-210.000
 464.8000, -71.306
 464.8100,-210.000
 464.8200, -81.484
 464.8300, -76.732
 464.8400, -73.060
 464.8500, -82.775
 464.8600, -73.737
 464.8700, -73.924
 464.8800, -81.749
 464.8900, -75.101
 464.9000, -73.128
 464.9100,-210.000
 464.9200, -79.181
 464.9300,-210.000
 464.9400,-210.000
 464.9500, -70.226
 464.9600, -74.653
 464.9700, -71.909
 464.9800, -71.029
 464.9900, -70.925
 465.0000, -71.542
